0.72549
0.67059
0.6098
0.55098
0.5
0.4549
0.4098
0.3902
0.37451
0.35882
0.3549
0.34902
0.3549
0.36471
0.3549
0.36471
0.37451
0.37059
0.3902
0.3902
0.3902
0.39412
0.40392
0.40392
0.4
0.39412
0.38431
0.38431
0.38039
0.3902
0.40392
0.41961
0.41961
0.42549
0.42549
0.4
0.3902
0.40392
0.41961
0.42941
0.43529
0.42941
0.41569
0.4098
0.41569
0.41961
0.40392
0.34902
0.6549
1.5039
1.5039
1.5039
0.66078
0.42941
0.41961
0.40392
0.38431
0.34902
0.33922
0.3549
0.38039
0.38039
0.3902
0.40392
0.39412
0.40392
0.42941
0.43529
0.43922
0.46078
0.48431
0.51569
0.55098
0.60588
0.6549
0.69608
0.72549
0.74118
0.75098
0.74118
0.71569
0.66471
0.60588
0.5451
0.47451
0.42941
0.38431
0.3451
0.31961
0.3098
0.3098
0.3098
0.30392
0.29412
0.3
0.32941
0.32941
0.32353
0.33922
0.32941
0.33529
0.33922
0.33922
0.33922
0.33922
0.33529
0.32941
0.31961
0.32941
0.33529
0.33922
0.3549
0.36471
0.3451
0.33529
0.31373
0.3098
0.31373
0.32941
0.31961
0.33529
0.3098
0.3098
0.30392
0.3098
0.31373
0.26471
0.4549
1.2078
1.5039
1.5039
0.82549
0.33529
0.31373
0.33529
0.31373
0.3098
0.30392
0.3098
0.31373
0.3098
0.33529
0.33529
0.34902
0.36471
0.37451
0.40392
0.42549
0.44902
0.48039
0.51569
0.57059
0.6098
0.67647
0.73137
0.77647
0.8
0.8
0.8
0.77647
0.71569
0.65098
0.58431
0.50588
0.43529
0.37059
0.32941
0.2902
0.25882
0.23922
0.22941
0.23922
0.2549
0.26471
0.28431
0.30392
0.32941
0.3451
0.3549
0.37059
0.38039
0.38431
0.39412
0.38431
0.38431
0.38039
0.37451
0.37059
0.36471
0.35882
0.37451
0.38431
0.38039
0.35882
0.34902
0.31373
0.3098
0.31961
0.33529
0.33922
0.33529
0.33529
0.32353
0.32941
0.33529
0.3451
0.3
0.25882
0.71569
1.5039
1.5039
1.3784
0.51961
0.40392
0.4098
0.37059
0.3549
0.33529
0.3549
0.37059
0.37451
0.36471
0.38039
0.38039
0.38039
0.4
0.41961
0.41961
0.46078
0.47451
0.50588
0.52549
0.5902
0.61961
0.67647
0.72157
0.75098
0.77647
0.77059
0.77059
0.7451
0.6902
0.62941
0.56471
0.50588
0.4549
0.41569
0.3902
0.36471
0.3451
0.33529
0.32941
0.33529
0.32353
0.33922
0.35882
0.36471
0.37451
0.36471
0.38039
0.38431
0.39412
0.40392
0.38039
0.39412
0.39412
0.38039
0.37451
0.37059
0.37451
0.3902
0.4
0.39412
0.3902
0.38039
0.3549
0.31961
0.3451
0.35882
0.37451
0.37059
0.37451
0.33922
0.34902
0.33922
0.34902
0.3549
0.26863
0.44902
1.1765
1.5039
1.5039
0.81569
0.4549
0.42941
0.4
0.36471
0.34902
0.33922
0.34902
0.37059
0.35882
0.38039
0.39412
0.40392
0.41569
0.41961
0.42941
0.44902
0.47059
0.4902
0.51961
0.56471
0.6
0.6451
0.69608
0.7451
0.77647
0.79608
0.79608
0.78039
0.74118
0.7
0.65098
0.58431
0.52549
0.48039
0.4549
0.42941
0.41569
0.4
0.3902
0.3902
0.40392
0.41569
0.4098
0.41961
0.42549
0.41961
0.42549
0.41569
0.42549
0.42549
0.41569
0.4098
0.40392
0.39412
0.40392
0.4
0.38039
0.40392
0.4098
0.40392
0.41569
0.39412
0.37451
0.36471
0.35882
0.35882
0.36471
0.3549
0.35882
0.34902
0.33922
0.33529
0.33529
0.3451
0.27451
0.42941
1.0922
1.5039
1.5039
0.89608
0.35882
0.33922
0.3549
0.33529
0.3098
0.31373
0.3098
0.31961
0.33529
0.32941
0.3451
0.3549
0.35882
0.37059
0.37451
0.3902
0.41961
0.4451
0.48039
0.52941
0.57059
0.61961
0.68627
0.72549
0.74118
0.7451
0.7549
0.72549
0.68627
0.61569
0.56471
0.49412
0.41961
0.37059
0.34902
0.32941
0.3
0.30392
0.28431
0.2902
0.28431
0.3
0.3098
0.30392
0.32941
0.33529
0.33529
0.33529
0.33922
0.3549
0.3549
0.3549
0.3549
0.34902
0.33922
0.3451
0.34902
0.3549
0.36471
0.37059
0.37059
0.37451
0.33529
0.31961
0.33529
0.33922
0.3451
0.32353
0.32353
0.30392
0.3
0.3098
0.3098
0.2902
0.2549
0.65098
1.5039
1.5039
1.4627
0.50588
0.32941
0.35882
0.36471
0.37059
0.35882
0.33529
0.33529
0.34902
0.37059
0.38039
0.4
0.39412
0.40392
0.41961
0.42549
0.42941
0.4549
0.49412
0.52941
0.57451
0.63529
0.69608
0.76078
0.7902
0.82549
0.81176
0.79608
0.76078
0.70588
0.63529
0.58039
0.50588
0.46078
0.40392
0.38039
0.3549
0.3451
0.33529
0.32941
0.33529
0.33529
0.3451
0.3549
0.35882
0.3549
0.38039
0.38039
0.3902
0.40392
0.39412
0.4
0.39412
0.40392
0.3902
0.38039
0.36471
0.35882
0.38039
0.4
0.4098
0.4
0.4098
0.38431
0.3549
0.34902
0.3451
0.37451
0.36471
0.37059
0.35882
0.3451
0.33922
0.33922
0.33922
0.27451
0.26471
0.94118
1.5039
1.5039
1.1059
0.48039
0.41961
0.38431
0.3549
0.32941
0.31961
0.32941
0.34902
0.3451
0.36471
0.37451
0.37059
0.38039
0.3902
0.40392
0.41961
0.43922
0.46471
0.4902
0.53922
0.58039
0.62549
0.68627
0.70588
0.74118
0.75098
0.76667
0.75098
0.7098
0.6549
0.6098
0.5549
0.49412
0.43922
0.40392
0.39412
0.38039
0.37451
0.35882
0.37059
0.36471
0.37059
0.36471
0.38039
0.38431
0.3902
0.39412
0.4
0.4
0.39412
0.4098
0.4098
0.40392
0.4
0.39412
0.3902
0.38039
0.3902
0.4098
0.42941
0.43922
0.43529
0.41961
0.4
0.40392
0.41569
0.43922
0.42941
0.42941
0.42549
0.41961
0.41569
0.42549
0.42941
0.36471
0.3549
0.99216
1.5039
1.5039
1.1471
0.5098
0.43529
0.42549
0.40392
0.38431
0.36471
0.35882
0.38039
0.37451
0.38431
0.3902
0.4
0.40392
0.41961
0.42941
0.4451
0.44902
0.47451
0.5098
0.53529
0.57059
0.62941
0.68039
0.7098
0.73137
0.7451
0.7451
0.72549
0.69608
0.64118
0.58039
0.51961
0.46078
0.4
0.37059
0.34902
0.33529
0.31373
0.30392
0.3098
0.3098
0.3098
0.32353
0.33529
0.32941
0.33529
0.33922
0.34902
0.33529
0.3451
0.3451
0.32941
0.33529
0.33529
0.3098
0.32941
0.3549
0.34902
0.3549
0.34902
0.3549
0.31961
0.3098
0.3098
0.3098
0.32941
0.31961
0.31961
0.32941
0.3
0.31373
0.31373
0.32353
0.25882
0.49412
1.3569
1.5039
1.5039
0.68039
0.3
0.32941
0.33529
0.31373
0.28431
0.28431
0.3098
0.31961
0.31373
0.31961
0.32941
0.33922
0.3549
0.37451
0.3902
0.40392
0.4451
0.48039
0.5098
0.55098
0.60588
0.66078
0.7098
0.7451
0.76667
0.77059
0.7549
0.72549
0.67059
0.6
0.51961
0.43922
0.38039
0.32941
0.29412
0.27451
0.26471
0.26471
0.26863
0.28431
0.30392
0.31373
0.31961
0.32941
0.3451
0.33922
0.36471
0.37451
0.37451
0.38039
0.36471
0.37059
0.3451
0.33922
0.33529
0.33529
0.33922
0.37059
0.38039
0.38039
0.37059
0.38039
0.33922
0.32353
0.33529
0.33922
0.3549
0.35882
0.34902
0.33529
0.32941
0.32941
0.33922
0.3549
0.26863
0.59608
1.5039
1.5039
1.5039
0.60588
0.4098
0.39412
0.37451
0.34902
0.34902
0.3451
0.35882
0.3549
0.36471
0.3902
0.38039
0.38431
0.40392
0.4098
0.40392
0.46078
0.48431
0.5
0.52941
0.57059
0.6098
0.68039
0.71569
0.75098
0.76667
0.77647
0.76667
0.73529
0.6902
0.62941
0.57059
0.5098
0.46471
0.41961
0.3902
0.35882
0.3549
0.34902
0.33922
0.3451
0.3549
0.36471
0.35882
0.35882
0.37451
0.38039
0.3902
0.40392
0.4098
0.4
0.39412
0.38431
0.38039
0.37059
0.36471
0.37451
0.3902
0.40392
0.41569
0.40392
0.4
0.38039
0.3549
0.3549
0.34902
0.37451
0.38431
0.37059
0.34902
0.33922
0.3549
0.34902
0.35882
0.27843
0.26471
0.92157
1.5039
1.5039
1.0412
0.47059
0.41569
0.38039
0.37451
0.34902
0.33529
0.31961
0.34902
0.3549
0.3451
0.38039
0.38431
0.3902
0.40392
0.41569
0.42549
0.43922
0.46471
0.49412
0.53922
0.58039
0.62549
0.67647
0.70588
0.74118
0.7549
0.75098
0.73529
0.70588
0.66078
0.60588
0.55098
0.50588
0.46078
0.42941
0.4098
0.40392
0.40392
0.4
0.40392
0.42549
0.42941
0.43529
0.4451
0.44902
0.44902
0.4451
0.4451
0.44902
0.44902
0.43922
0.43529
0.43529
0.42549
0.41961
0.41961
0.41569
0.42941
0.43922
0.43529
0.42941
0.41961
0.3902
0.38039
0.38039
0.39412
0.40392
0.3902
0.38431
0.38039
0.35882
0.36471
0.35882
0.37451
0.29412
0.65098
1.5039
1.5039
1.5039
0.55098
0.35882
0.38039
0.3549
0.33922
0.32941
0.33922
0.33922
0.33529
0.33922
0.3451
0.35882
0.35882
0.37451
0.38039
0.3902
0.4098
0.42941
0.4549
0.49412
0.53922
0.58431
0.63529
0.68039
0.70588
0.72157
0.73137
0.72157
0.68627
0.64118
0.58431
0.50588
0.4549
0.40392
0.35882
0.33529
0.3098
0.2902
0.29412
0.2902
0.28431
0.3098
0.30392
0.3
0.31961
0.33922
0.33529
0.33922
0.3549
0.3451
0.3549
0.34902
0.33922
0.33529
0.33922
0.32941
0.33529
0.33529
0.34902
0.35882
0.3549
0.3451
0.31373
0.3098
0.31373
0.31961
0.33529
0.32353
0.32941
0.3098
0.3098
0.32941
0.31373
0.31961
0.27451
0.75098
1.5039
1.5039
1.4078
0.47451
0.31961
0.3451
0.33529
0.33922
0.31373
0.3098
0.31373
0.31961
0.31373
0.32353
0.32353
0.32941
0.33529
0.3451
0.35882
0.38039
0.41569
0.4549
0.5
0.5549
0.61961
0.6902
0.75098
0.7902
0.81176
0.82157
0.80588
0.76667
0.7098
0.62941
0.5451
0.47451
0.41961
0.38431
0.33922
0.3
0.27451
0.28431
0.2902
0.29412
0.3
0.3098
0.32353
0.33922
0.33529
0.3549
0.37059
0.37451
0.37059
0.38039
0.38039
0.37451
0.37059
0.34902
0.37059
0.35882
0.38039
0.38431
0.39412
0.40392
0.38431
0.38039
0.34902
0.3451
0.33922
0.36471
0.38039
0.35882
0.35882
0.33922
0.3451
0.3549
0.3549
0.33922
0.27451
0.58431
1.4686
1.5039
1.5039
0.67647
0.42941
0.41569
0.38431
0.35882
0.32941
0.33922
0.35882
0.37059
0.36471
0.38431
0.38039
0.3902
0.40392
0.41569
0.42549
0.46078
0.47059
0.49412
0.51569
0.56471
0.6098
0.67059
0.71569
0.74118
0.76078
0.78039
0.78627
0.74118
0.69608
0.63529
0.57451
0.51961
0.46471
0.42549
0.4
0.38039
0.37451
0.35882
0.3549
0.3549
0.35882
0.37451
0.37059
0.37451
0.37059
0.3902
0.39412
0.3902
0.40392
0.4098
0.4
0.40392
0.40392
0.3902
0.38431
0.36471
0.39412
0.4098
0.42549
0.42549
0.41569
0.41569
0.37059
0.38431
0.38039
0.4
0.3902
0.38039
0.35882
0.3451
0.37059
0.36471
0.38431
0.30392
0.2902
0.89608
1.5039
1.5039
1.0922
0.4902
0.42549
0.40392
0.38039
0.37451
0.3549
0.37059
0.4
0.41569
0.42549
0.46078
0.47059
0.47059
0.48431
0.5
0.51569
0.53529
0.5549
0.58039
0.61569
0.6549
0.6902
0.7451
0.78039
0.8
0.81569
0.82549
0.79608
0.75098
0.69608
0.6451
0.57451
0.5098
0.46078
0.41961
0.3902
0.37059
0.36471
0.3549
0.3549
0.35882
0.3549
0.37059
0.38039
0.37451
0.38039
0.38431
0.38431
0.38431
0.3902
0.37451
0.37059
0.36471
0.3549
0.33922
0.34902
0.35882
0.37451
0.37059
0.35882
0.37059
0.3451
0.31961
0.31373
0.31961
0.3451
0.33922
0.33529
0.31961
0.3098
0.31961
0.3098
0.3098
0.2549
0.24902
0.91569
1.5039
1.5039
1.051
0.36471
0.30392
0.32941
0.30392
0.3
0.28431
0.2902
0.3098
0.31373
0.32353
0.33529
0.33529
0.3451
0.36471
0.37451
0.3902
0.42549
0.4451
0.48039
0.52549
0.5549
0.61961
0.67059
0.72549
0.7451
0.74118
0.7549
0.72549
0.6902
0.62549
0.56471
0.48431
0.42941
0.36471
0.32941
0.30392
0.2902
0.28431
0.27843
0.27451
0.27843
0.27451
0.29412
0.30392
0.3098
0.32353
0.32941
0.33529
0.33529
0.33529
0.32353
0.31961
0.3098
0.3
0.29412
0.3
0.3098
0.31373
0.32353
0.32941
0.32941
0.32353
0.30392
0.30392
0.31373
0.33529
0.3451
0.33529
0.34902
0.32941
0.33922
0.32941
0.33922
0.3
0.2549
0.66078
1.5039
1.5039
1.4569
0.50588
0.34902
0.36471
0.3451
0.33529
0.31961
0.3098
0.32941
0.33529
0.3549
0.35882
0.36471
0.37451
0.39412
0.4098
0.40392
0.44902
0.46078
0.5
0.53529
0.57451
0.61569
0.67059
0.71569
0.7549
0.77647
0.76667
0.78039
0.74118
0.6902
0.61961
0.56078
0.49412
0.43922
0.40392
0.37451
0.3451
0.33922
0.32941
0.32353
0.31961
0.32353
0.34902
0.34902
0.35882
0.37451
0.37059
0.38039
0.38431
0.3902
0.3902
0.4
0.38039
0.37451
0.36471
0.37451
0.36471
0.38431
0.40392
0.4
0.3902
0.40392
0.38431
0.34902
0.34902
0.3549
0.37059
0.36471
0.37059
0.3549
0.33922
0.3451
0.33922
0.3451
0.27843
0.26863
0.97059
1.5039
1.5039
1.0275
0.4902
0.42549
0.4
0.37451
0.34902
0.33529
0.3451
0.37451
0.34902
0.35882
0.37451
0.38039
0.38431
0.39412
0.4098
0.41569
0.43922
0.46078
0.48039
0.52549
0.57059
0.6098
0.66078
0.7
0.72157
0.73529
0.73529
0.72549
0.6902
0.65098
0.5902
0.53529
0.48039
0.43529
0.39412
0.37059
0.3549
0.34902
0.3451
0.3549
0.34902
0.36471
0.37059
0.37451
0.37059
0.37451
0.37451
0.38039
0.3902
0.39412
0.39412
0.4
0.4
0.38431
0.37451
0.37451
0.37059
0.40392
0.42549
0.4098
0.40392
0.38431
0.3549
0.3549
0.3549
0.37451
0.38039
0.37451
0.38039
0.36471
0.37059
0.38431
0.4
0.34902
0.31961
0.90588
1.5039
1.5039
1.1569
0.5098
0.4451
0.43529
0.41569
0.39412
0.36471
0.3549
0.38039
0.40392
0.3902
0.40392
0.42549
0.42941
0.42941
0.4451
0.44902
0.47059
0.48431
0.5098
0.5451
0.58431
0.64118
0.67647
0.71569
0.7451
0.7549
0.7549
0.74118
0.7098
0.65098
0.58431
0.52549
0.47059
0.42549
0.38039
0.37059
0.34902
0.33529
0.32353
0.32941
0.32941
0.32353
0.33529
0.33922
0.34902
0.3549
0.3549
0.3549
0.35882
0.3549
0.3451
0.33529
0.3451
0.33529
0.32353
0.33529
0.34902
0.34902
0.35882
0.34902
0.3451
0.32941
0.3098
0.30392
0.32353
0.31961
0.32941
0.32353
0.31373
0.3098
0.30392
0.3098
0.30392
0.24902
0.44902
1.2275
1.5039
1.5039
0.75098
0.31961
0.3098
0.32941
0.31373
0.2902
0.29412
0.3
0.3098
0.31373
0.32353
0.32941
0.33529
0.34902
0.37059
0.36471
0.38431
0.41569
0.4549
0.4902
0.52549
0.5902
0.6549
0.69608
0.73529
0.76078
0.78039
0.74118
0.70588
0.66471
0.60588
0.5098
0.4549
0.40392
0.3451
0.31373
0.3
0.3098
0.28431
0.3
0.2902
0.30392
0.28431
0.3098
0.3098
0.32941
0.33529
0.3549
0.34902
0.3451
0.35882
0.33922
0.33529
0.34902
0.37451
0.33922
0.32941
0.32353
0.35882
0.38431
0.38039
0.36471
0.37451
0.33529
0.31961
0.34902
0.31961
0.32353
0.34902
0.33922
0.31961
0.3098
0.3451
0.3549
0.32353
0.2902
0.80588
1.5039
1.5039
1.4725
0.4902
0.3451
0.38431
0.3549
0.3451
0.33529
0.33529
0.34902
0.3451
0.3549
0.37451
0.38431
0.4
0.42941
0.4451
0.47451
0.5
0.52549
0.5549
0.59608
0.64118
0.68039
0.73529
0.78627
0.80588
0.80588
0.8
0.78627
0.7451
0.69608
0.62941
0.57059
0.5098
0.4549
0.41569
0.38431
0.36471
0.36471
0.3549
0.36471
0.3549
0.36471
0.38039
0.38039
0.39412
0.40392
0.41961
0.42549
0.42941
0.43529
0.43922
0.42941
0.42549
0.41569
0.4098
0.39412
0.4
0.39412
0.4
0.42549
0.42549
0.42549
0.41961
0.39412
0.37451
0.38039
0.3902
0.40392
0.3902
0.38431
0.38039
0.37059
0.37059
0.37451
0.37451
0.27451
0.4098
1.1314
1.5039
1.5039
0.88039
0.43922
0.42549
0.41961
0.38431
0.3451
0.32941
0.33922
0.3549
0.3549
0.37059
0.38039
0.3902
0.4
0.4098
0.42549
0.4451
0.4549
0.48431
0.5098
0.5451
0.5902
0.64118
0.6902
0.73137
0.7549
0.77059
0.76667
0.7451
0.70588
0.6451
0.58039
0.5098
0.44902
0.40392
0.37451
0.3451
0.32941
0.31373
0.3098
0.3098
0.31373
0.31373
0.32941
0.33529
0.3451
0.34902
0.3549
0.3549
0.36471
0.3549
0.37451
0.36471
0.35882
0.3549
0.3549
0.3549
0.3549
0.36471
0.38039
0.40392
0.39412
0.38039
0.35882
0.32353
0.30392
0.33529
0.3451
0.33922
0.33529
0.32353
0.31373
0.32353
0.33529
0.33529
0.2549
0.24902
0.8902
1.5039
1.5039
0.98235
0.46078
0.41569
0.38431
0.34902
0.33529
0.31961
0.33529
0.34902
0.3549
0.37451
0.38431
0.36471
0.35882
0.38039
0.4
0.41569
0.43922
0.4549
0.48431
0.52941
0.56471
0.61569
0.66078
0.69608
0.72157
0.73137
0.73137
0.7098
0.68039
0.6451
0.58039
0.52941
0.48039
0.43529
0.4
0.37059
0.33922
0.33529
0.33529
0.33529
0.32353
0.3451
0.34902
0.3451
0.3549
0.35882
0.35882
0.36471
0.36471
0.37451
0.38039
0.37451
0.38039
0.36471
0.3549
0.34902
0.37059
0.38431
0.4
0.40392
0.39412
0.38431
0.3549
0.33922
0.3451
0.3549
0.35882
0.3549
0.3549
0.3451
0.33529
0.33529
0.32941
0.33922
0.25882
0.42941
1.1471
1.5039
1.5039
0.75098
0.40392
0.3902
0.39412
0.36471
0.33529
0.32941
0.32941
0.34902
0.3549
0.36471
0.38431
0.3902
0.3902
0.41569
0.42549
0.42941
0.44902
0.47059
0.5
0.53922
0.58431
0.63529
0.67647
0.71569
0.74118
0.7451
0.7451
0.73137
0.7
0.66078
0.61569
0.57059
0.52549
0.49412
0.46078
0.43529
0.42549
0.40392
0.4
0.4098
0.4098
0.41569
0.42549
0.41961
0.42549
0.41961
0.42549
0.41569
0.4098
0.40392
0.39412
0.39412
0.3902
0.38039
0.38039
0.36471
0.37451
0.39412
0.4
0.4
0.39412
0.38431
0.35882
0.3549
0.3549
0.35882
0.36471
0.3549
0.3549
0.33529
0.32941
0.33529
0.33529
0.3451
0.26863
0.68039
1.5039
1.5039
1.2824
0.44902
0.32941
0.3451
0.32941
0.31961
0.30392
0.3
0.31373
0.31961
0.31373
0.32941
0.33529
0.33529
0.35882
0.37451
0.39412
0.40392
0.41961
0.4549
0.49412
0.53529
0.57059
0.61961
0.66471
0.70588
0.71569
0.71569
0.7
0.66471
0.62941
0.57451
0.5098
0.44902
0.40392
0.35882
0.33529
0.30392
0.3
0.30392
0.3
0.3
0.29412
0.3098
0.31373
0.31373
0.32941
0.33529
0.33529
0.3451
0.3451
0.34902
0.33922
0.33529
0.32941
0.32353
0.31961
0.31373
0.33922
0.3451
0.33529
0.32353
0.3098
0.28431
0.27451
0.26471
0.27451
0.27843
0.26471
0.26471
0.25882
0.26863
0.27451
0.28431
0.2902
0.25882
0.62941
1.5039
1.5039
1.5039
0.55098
0.32353
0.3451
0.33529
0.32353
0.31373
0.31373
0.32941
0.3549
0.3549
0.3549
0.36471
0.37059
0.38039
0.40392
0.42549
0.43922
0.46471
0.4902
0.52549
0.57451
0.62549
0.67647
0.73137
0.76667
0.78039
0.79608
0.77647
0.76667
0.72157
0.6549
0.59608
0.52941
0.47451
0.42549
0.39412
0.37059
0.3451
0.3451
0.33922
0.3451
0.33922
0.3549
0.35882
0.37059
0.38039
0.39412
0.40392
0.4098
0.4098
0.41569
0.4
0.39412
0.4
0.3902
0.37451
0.37451
0.38039
0.40392
0.4098
0.42549
0.41569
0.40392
0.37451
0.35882
0.36471
0.37451
0.38431
0.36471
0.37059
0.3549
0.3549
0.3549
0.34902
0.35882
0.26863
0.4902
1.3078
1.5039
1.5039
0.77647
0.4549
0.4451
0.40392
0.38039
0.3549
0.34902
0.3549
0.36471
0.37059
0.3902
0.4
0.38431
0.40392
0.42549
0.43529
0.4451
0.46078
0.48431
0.50588
0.5549
0.59608
0.65098
0.6902
0.71569
0.74118
0.7451
0.74118
0.72157
0.6902
0.63529
0.58431
0.53529
0.49412
0.43922
0.41961
0.38431
0.3902
0.37451
0.35882
0.3549
0.38039
0.38039
0.3902
0.38431
0.40392
0.4
0.39412
0.4098
0.40392
0.4
0.4
0.4
0.39412
0.3902
0.38039
0.38039
0.38039
0.4098
0.41961
0.43529
0.4098
0.4
0.36471
0.35882
0.35882
0.38039
0.3902
0.38431
0.38039
0.36471
0.36471
0.36471
0.37451
0.38039
0.3098
0.61569
1.4882
1.5039
1.5039
0.62941
0.43529
0.4451
0.44902
0.42941
0.4
0.38039
0.4
0.42549
0.42549
0.41961
0.42549
0.43922
0.4451
0.44902
0.46078
0.47451
0.49412
0.50588
0.52941
0.56471
0.6
0.6451
0.68627
0.71569
0.73137
0.74118
0.73137
0.72157
0.68039
0.62941
0.56471
0.51569
0.46471
0.42549
0.4
0.37451
0.35882
0.3549
0.3549
0.35882
0.3549
0.3549
0.3549
0.36471
0.37059
0.38039
0.38431
0.37059
0.36471
0.37059
0.36471
0.3549
0.3549
0.3549
0.33529
0.33529
0.34902
0.3549
0.36471
0.3549
0.3549
0.32353
0.3098
0.31373
0.32353
0.33529
0.32353
0.32941
0.3098
0.3098
0.3098
0.3098
0.31961
0.26863
0.6
1.5039
1.5039
1.5039
0.56471
0.3098
0.33529
0.32941
0.31373
0.31961
0.3098
0.3098
0.32353
0.32941
0.33529
0.33922
0.3549
0.37451
0.38431
0.39412
0.40392
0.42941
0.47059
0.50588
0.56078
0.61569
0.67059
0.6902
0.73529
0.7549
0.7549
0.7451
0.71569
0.67059
0.6098
0.53529
0.47451
0.41569
0.35882
0.32353
0.29412
0.27843
0.26863
0.27451
0.26863
0.27451
0.28431
0.28431
0.3
0.3098
0.31373
0.31961
0.32353
0.32941
0.33529
0.33922
0.33529
0.33922
0.33922
0.33922
0.33922
0.3549
0.37059
0.37451
0.36471
0.35882
0.34902
0.32941
0.33529
0.32353
0.32941
0.31961
0.31961
0.31373
0.3098
0.31961
0.32941
0.33529
0.28431
0.26863
0.89608
1.5039
1.5039
1.1118
0.42941
0.37451
0.40392
0.35882
0.3451
0.33529
0.3451
0.35882
0.36471
0.38431
0.36471
0.36471
0.38039
0.4
0.4098
0.42549
0.4451
0.47059
0.5
0.5451
0.59608
0.65098
0.69608
0.72549
0.75098
0.7549
0.7451
0.73137
0.7
0.65098
0.5902
0.55098
0.50588
0.44902
0.41569
0.38039
0.35882
0.34902
0.33922
0.34902
0.3549
0.36471
0.34902
0.37059
0.37451
0.38039
0.38039
0.38431
0.38039
0.39412
0.3902
0.3902
0.4
0.38039
0.3902
0.3902
0.37059
0.38431
0.40392
0.41569
0.41569
0.40392
0.38431
0.37059
0.36471
0.37451
0.38431
0.3902
0.37451
0.35882
0.3549
0.3451
0.34902
0.34902
0.3
0.26471
0.85686
1.5039
1.5039
1.1314
0.4902
0.42941
0.4098
0.37451
0.35882
0.3451
0.33922
0.36471
0.37451
0.36471
0.3902
0.38431
0.39412
0.40392
0.42549
0.43922
0.46078
0.47059
0.5
0.53922
0.57451
0.62549
0.66471
0.70588
0.73137
0.73137
0.73137
0.72549
0.69608
0.6549
0.60588
0.55098
0.5098
0.47059
0.42941
0.4
0.38039
0.38039
0.37451
0.37451
0.38431
0.39412
0.40392
0.40392
0.41961
0.42549
0.43922
0.44902
0.4549
0.44902
0.4549
0.44902
0.46471
0.44902
0.43922
0.42941
0.42549
0.43529
0.4451
0.4451
0.43529
0.42549
0.40392
0.38039
0.37059
0.37451
0.38039
0.38039
0.37451
0.37059
0.3549
0.34902
0.3549
0.36471
0.30392
0.29412
0.93725
1.5039
1.5039
1.0471
0.41569
0.37451
0.38431
0.3549
0.32353
0.31961
0.32941
0.32353
0.33529
0.33922
0.34902
0.3549
0.35882
0.37451
0.38431
0.40392
0.41961
0.43922
0.47059
0.5098
0.5451
0.6
0.64118
0.68039
0.70588
0.72549
0.72157
0.6902
0.67647
0.62549
0.57451
0.50588
0.44902
0.4
0.35882
0.33922
0.31373
0.30392
0.3098
0.31961
0.3098
0.31961
0.33529
0.33529
0.33529
0.33922
0.3549
0.36471
0.3451
0.35882
0.3549
0.3451
0.3451
0.33529
0.33529
0.33529
0.33922
0.3451
0.36471
0.3549
0.35882
0.33529
0.31961
0.31373
0.32353
0.33922
0.34902
0.33529
0.33529
0.31961
0.31961
0.32941
0.33529
0.30392
0.28431
0.83137
1.5039
1.5039
1.2275
0.39412
0.2902
0.31373
0.3098
0.29412
0.27843
0.27451
0.28431
0.3
0.32941
0.3451
0.3549
0.35882
0.37451
0.3902
0.41961
0.4451
0.46471
0.49412
0.52941
0.57451
0.62941
0.6902
0.73137
0.76667
0.77647
0.76078
0.75098
0.71569
0.66471
0.59608
0.53922
0.48431
0.41961
0.38039
0.3549
0.33529
0.32941
0.31961
0.31373
0.32353
0.31961
0.32941
0.33529
0.34902
0.3549
0.37451
0.38431
0.38039
0.39412
0.3902
0.4
0.38039
0.38039
0.37059
0.3549
0.3549
0.36471
0.38039
0.39412
0.40392
0.4098
0.4
0.37451
0.3451
0.3451
0.34902
0.36471
0.37059
0.35882
0.37059
0.34902
0.35882
0.3549
0.34902
0.27843
0.4549
1.2078
1.5039
1.5039
0.8451
0.47059
0.4451
0.4098
0.3902
0.34902
0.3451
0.35882
0.36471
0.35882
0.38431
0.39412
0.3902
0.41961
0.42549
0.43529
0.44902
0.46078
0.49412
0.51569
0.5451
0.6098
0.65098
0.68627
0.72157
0.73529
0.74118
0.7451
0.72549
0.69608
0.65098
0.60588
0.55098
0.50588
0.46078
0.42549
0.40392
0.38431
0.4
0.38039
0.37451
0.37059
0.38039
0.38039
0.38039
0.38431
0.38431
0.40392
0.40392
0.4098
0.40392
0.40392
0.4
0.39412
0.4098
0.4
0.40392
0.40392
0.4098
0.42941
0.43922
0.41961
0.41569
0.3902
0.36471
0.35882
0.37451
0.38039
0.38431
0.38039
0.35882
0.3549
0.3549
0.35882
0.37059
0.29412
0.46078
1.151
1.5039
1.5039
0.82157
0.4451
0.42549
0.43922
0.42549
0.4
0.38431
0.4
0.43529
0.44902
0.44902
0.46471
0.47059
0.47451
0.48039
0.4902
0.5
0.5098
0.52549
0.55098
0.58431
0.6098
0.66471
0.70588
0.73529
0.7549
0.75098
0.7549
0.73137
0.69608
0.6549
0.5902
0.53529
0.49412
0.44902
0.40392
0.38039
0.36471
0.35882
0.35882
0.35882
0.36471
0.38039
0.38039
0.38431
0.3902
0.39412
0.3902
0.38039
0.38039
0.38431
0.38039
0.37451
0.35882
0.33922
0.3451
0.33529
0.33922
0.37059
0.37059
0.35882
0.36471
0.34902
0.33529
0.32353
0.32941
0.33529
0.3451
0.33529
0.31961
0.31373
0.3098
0.32353
0.32353
0.2902
0.26471
0.83529
1.5039
1.5039
1.1667
0.39412
0.3098
0.32941
0.31373
0.3098
0.3098
0.3098
0.31961
0.33529
0.3451
0.33922
0.3549
0.3549
0.3549
0.37059
0.3902
0.40392
0.43529
0.46471
0.50588
0.53529
0.59608
0.65098
0.69608
0.72549
0.73137
0.73137
0.71569
0.68039
0.62941
0.57059
0.50588
0.43529
0.38431
0.3451
0.3098
0.28431
0.27843
0.27451
0.26863
0.27451
0.26863
0.28431
0.28431
0.29412
0.30392
0.31373
0.32941
0.32941
0.32353
0.33529
0.32353
0.31961
0.31961
0.31373
0.31373
0.32353
0.34902
0.37059
0.38039
0.37059
0.36471
0.33922
0.31961
0.32941
0.33529
0.3549
0.34902
0.3451
0.3549
0.32941
0.33529
0.33529
0.32353
0.23922
0.41569
1.1961
1.5039
1.5039
0.82157
0.3902
0.37451
0.38431
0.3549
0.33922
0.33529
0.35882
0.37451
0.38039
0.37059
0.38039
0.38039
0.40392
0.42549
0.43922
0.44902
0.47059
0.49412
0.53529
0.56471
0.6098
0.6549
0.7098
0.75098
0.77647
0.78039
0.76667
0.7549
0.71569
0.66471
0.60588
0.55098
0.5
0.4549
0.41569
0.38431
0.35882
0.3549
0.3549
0.3549
0.35882
0.35882
0.36471
0.38039
0.38431
0.3902
0.3902
0.39412
0.39412
0.3902
0.39412
0.38039
0.38039
0.37059
0.35882
0.3549
0.37059
0.3902
0.4
0.41569
0.40392
0.4
0.37059
0.3451
0.34902
0.3549
0.37059
0.38039
0.36471
0.34902
0.3549
0.34902
0.3549
0.35882
0.27451
0.43529
1.1176
1.5039
1.5039
0.8451
0.43529
0.41961
0.39412
0.38039
0.3549
0.33922
0.34902
0.37451
0.36471
0.3902
0.4
0.38431
0.40392
0.41961
0.43529
0.44902
0.46471
0.4902
0.51569
0.5451
0.5902
0.63529
0.66471
0.70588
0.73529
0.73137
0.73137
0.7098
0.68039
0.62941
0.58431
0.52941
0.49412
0.43529
0.40392
0.39412
0.38039
0.36471
0.35882
0.36471
0.35882
0.36471
0.37451
0.38039
0.38039
0.38431
0.38039
0.38431
0.39412
0.4
0.4
0.3902
0.3902
0.3902
0.38039
0.38431
0.38039
0.4
0.4098
0.42549
0.4098
0.41569
0.37451
0.35882
0.38039
0.39412
0.4098
0.41569
0.40392
0.3902
0.38039
0.3902
0.39412
0.4
0.31961
0.52549
1.2922
1.5039
1.5039
0.75098
0.41569
0.4
0.39412
0.38431
0.35882
0.33529
0.33922
0.37059
0.37451
0.37059
0.38431
0.39412
0.39412
0.40392
0.41569
0.42941
0.4451
0.46471
0.49412
0.52941
0.56471
0.61961
0.6549
0.68039
0.7
0.7098
0.7098
0.6902
0.6549
0.6098
0.56078
0.50588
0.4549
0.4
0.36471
0.3451
0.32941
0.31373
0.32353
0.32941
0.33529
0.32353
0.33529
0.33922
0.3549
0.33922
0.3549
0.35882
0.3549
0.3549
0.3451
0.34902
0.33529
0.32941
0.32353
0.33529
0.32941
0.35882
0.37059
0.3549
0.33922
0.33529
0.3098
0.30392
0.31373
0.32941
0.32353
0.3098
0.31961
0.31373
0.3098
0.31373
0.3098
0.27451
0.25882
0.88627
1.5039
1.5039
1.102
0.38039
0.30392
0.32941
0.31961
0.3098
0.3
0.30392
0.3098
0.32353
0.32941
0.33922
0.3549
0.3549
0.37059
0.38431
0.39412
0.41961
0.44902
0.4902
0.52549
0.57451
0.61961
0.67059
0.71569
0.73529
0.7549
0.76078
0.73137
0.6902
0.62941
0.57059
0.5
0.43922
0.38431
0.33529
0.30392
0.26863
0.2549
0.24902
0.25882
0.26471
0.27451
0.28431
0.29412
0.3098
0.32941
0.33922
0.3549
0.3549
0.35882
0.35882
0.3549
0.35882
0.3549
0.35882
0.34902
0.33922
0.3549
0.37451
0.38431
0.38039
0.38039
0.35882
0.33529
0.33529
0.33922
0.3549
0.35882
0.34902
0.33922
0.33922
0.33529
0.3451
0.3451
0.27843
0.26471
0.86667
1.5039
1.5039
1.1216
0.44902
0.3902
0.38039
0.3549
0.33922
0.32353
0.34902
0.3549
0.37451
0.38431
0.38431
0.38431
0.4
0.41961
0.43529
0.4451
0.46078
0.48039
0.50588
0.53922
0.57451
0.63529
0.67647
0.7098
0.74118
0.7549
0.7451
0.73137
0.7098
0.66471
0.6098
0.5451
0.50588
0.46471
0.41961
0.39412
0.37059
0.3549
0.3549
0.3549
0.3549
0.35882
0.37059
0.38039
0.38039
0.38039
0.37451
0.3902
0.39412
0.3902
0.39412
0.38431
0.39412
0.39412
0.38039
0.37451
0.38039
0.38039
0.39412
0.4098
0.4098
0.4
0.3902
0.34902
0.3549
0.3549
0.37059
0.38039
0.37059
0.36471
0.34902
0.33922
0.3549
0.3549
0.3451
0.2902
0.57451
1.4176
1.5039
1.5039
0.62549
0.40392
0.40392
0.39412
0.37451
0.34902
0.32941
0.35882
0.37451
0.37451
0.3902
0.40392
0.39412
0.4098
0.42549
0.43922
0.47059
0.47451
0.49412
0.52549
0.56471
0.6
0.6451
0.69608
0.72157
0.72549
0.73137
0.72549
0.7098
0.67647
0.64118
0.59608
0.5451
0.5
0.46078
0.42549
0.4
0.38431
0.37451
0.37451
0.38039
0.38431
0.38431
0.3902
0.39412
0.4
0.39412
0.4
0.40392
0.41569
0.42549
0.42549
0.42549
0.42941
0.42941
0.41961
0.4098
0.41961
0.43922
0.4549
0.46471
0.46078
0.44902
0.41961
0.4
0.3902
0.39412
0.4098
0.41569
0.39412
0.38039
0.36471
0.36471
0.35882
0.37059
0.3098
0.42549
1.0373
1.5039
1.5039
0.91176
0.39412
0.36471
0.38039
0.36471
0.33922
0.31961
0.32941
0.33529
0.3451
0.3549
0.37451
0.37451
0.38039
0.39412
0.40392
0.41569
0.42549
0.4451
0.48039
0.50588
0.5451
0.59608
0.62941
0.66078
0.68627
0.68627
0.69608
0.67059
0.6451
0.6098
0.55098
0.50588
0.43922
0.4
0.35882
0.32941
0.3098
0.3098
0.31373
0.31373
0.31961
0.31961
0.32941
0.33529
0.33529
0.3451
0.34902
0.3549
0.3549
0.34902
0.3451
0.33922
0.33529
0.33529
0.32941
0.3098
0.3098
0.32353
0.34902
0.3549
0.34902
0.33529
0.3098
0.29412
0.3098
0.31961
0.32941
0.31961
0.31961
0.3098
0.30392
0.31961
0.3098
0.32353
0.28431
0.4451
1.1059
1.5039
1.5039
0.91569
0.3549
0.3098
0.33922
0.33529
0.31961
0.31373
0.31961
0.31961
0.31961
0.33529
0.33922
0.34902
0.3549
0.37059
0.38039
0.4
0.4098
0.43922
0.47059
0.5098
0.55098
0.60588
0.66078
0.70588
0.73529
0.7549
0.75098
0.73137
0.6902
0.6451
0.58039
0.51569
0.4549
0.4
0.35882
0.33529
0.3098
0.29412
0.29412
0.3098
0.32353
0.32941
0.33529
0.33529
0.34902
0.3549
0.35882
0.37059
0.38039
0.37451
0.38039
0.37451
0.37059
0.3549
0.3549
0.3549
0.34902
0.3451
0.36471
0.38039
0.38039
0.37451
0.37059
0.3451
0.33529
0.33922
0.3549
0.37451
0.37059
0.38039
0.35882
0.3549
0.3549
0.34902
0.3549
0.27843
0.4451
1.1961
1.5039
1.5039
0.83137
0.42549
0.4098
0.39412
0.38039
0.35882
0.3451
0.35882
0.37059
0.3549
0.39412
0.40392
0.39412
0.40392
0.41961
0.42941
0.44902
0.46078
0.48431
0.51569
0.5549
0.5902
0.63529
0.68627
0.71569
0.73529
0.7451
0.73529
0.73137
0.68627
0.64118
0.58431
0.53529
0.4902
0.4451
0.4098
0.38431
0.37059
0.3549
0.35882
0.35882
0.36471
0.37451
0.38039
0.38039
0.38039
0.3902
0.4
0.39412
0.40392
0.4098
0.3902
0.38039
0.38039
0.37451
0.36471
0.35882
0.3549
0.3549
0.37451
0.4
0.40392
0.40392
0.39412
0.37059
0.34902
0.3549
0.38039
0.39412
0.38431
0.37451
0.34902
0.3451
0.3549
0.34902
0.35882
0.29412
0.4451
1.0961
1.5039
1.5039
0.84118
0.41569
0.4
0.3902
0.36471
0.37059
0.33529
0.3451
0.35882
0.37059
0.38431
0.40392
0.40392
0.40392
0.42549
0.43529
0.44902
0.47451
0.49412
0.51961
0.55098
0.59608
0.63529
0.68039
0.71569
0.7451
0.7549
0.7451
0.73137
0.7
0.6549
0.61569
0.5549
0.51569
0.47451
0.42941
0.40392
0.38431
0.37451
0.37059
0.37451
0.38039
0.38039
0.38431
0.39412
0.40392
0.40392
0.40392
0.4098
0.4098
0.41569
0.41961
0.42549
0.42549
0.42549
0.42549
0.42549
0.42941
0.4451
0.44902
0.46078
0.46471
0.4549
0.43922
0.40392
0.4
0.39412
0.40392
0.4098
0.40392
0.38039
0.37451
0.36471
0.37059
0.37451
0.3549
0.3098
0.68039
1.5039
1.5039
1.402
0.50588
0.3549
0.37451
0.36471
0.3549
0.33529
0.33529
0.33922
0.3549
0.3549
0.36471
0.37451
0.38039
0.3902
0.40392
0.41961
0.42941
0.44902
0.47059
0.50588
0.5451
0.58431
0.63529
0.67059
0.7
0.7098
0.70588
0.70588
0.68039
0.6451
0.59608
0.53922
0.4902
0.43922
0.3902
0.35882
0.33922
0.32353
0.32353
0.32353
0.33529
0.33529
0.33922
0.34902
0.3549
0.3549
0.36471
0.37059
0.37451
0.36471
0.35882
0.3549
0.3549
0.34902
0.3549
0.33922
0.33922
0.3451
0.34902
0.36471
0.37451
0.38039
0.35882
0.33529
0.32353
0.33922
0.34902
0.33922
0.3451
0.33529
0.31961
0.31961
0.33529
0.32941
0.31373
0.28431
0.64118
1.5039
1.5039
1.5039
0.51961
0.3098
0.33529
0.33922
0.32353
0.32353
0.31961
0.32941
0.33922
0.3451
0.34902
0.3549
0.37451
0.38431
0.4
0.4098
0.42549
0.4451
0.47451
0.51569
0.56078
0.6098
0.66078
0.70588
0.73137
0.75098
0.75098
0.74118
0.7098
0.66078
0.6
0.52941
0.46078
0.4098
0.35882
0.32941
0.3098
0.29412
0.2902
0.29412
0.31373
0.32941
0.3451
0.3451
0.3549
0.3549
0.37059
0.38039
0.38431
0.38431
0.3902
0.3902
0.38431
0.38039
0.38039
0.37059
0.36471
0.3549
0.35882
0.38039
0.39412
0.40392
0.4
0.40392
0.37059
0.3549
0.3549
0.35882
0.38039
0.38039
0.37059
0.3549
0.3549
0.3549
0.36471
0.35882
0.28431
0.50588
1.3333
1.5039
1.5039
0.75098
0.42941
0.41569
0.39412
0.37451
0.3549
0.34902
0.37059
0.37451
0.38039
0.39412
0.40392
0.40392
0.40392
0.42941
0.4549
0.46471
0.47451
0.49412
0.52549
0.56078
0.59608
0.6451
0.6902
0.72157
0.74118
0.7451
0.73137
0.73137
0.7
0.6451
0.60588
0.5451
0.49412
0.4451
0.4098
0.38039
0.36471
0.3549
0.3549
0.3549
0.35882
0.37451
0.38039
0.37451
0.38039
0.3902
0.38039
0.38039
0.39412
0.4
0.3902
0.38039
0.38039
0.38039
0.36471
0.37451
0.37059
0.37451
0.38431
0.40392
0.41569
0.41569
0.40392
0.3902
0.35882
0.35882
0.37059
0.38039
0.3902
0.3902
0.37059
0.3549
0.3549
0.3549
0.36471
0.31961
0.29412
0.8451
1.5039
1.5039
1.1314
0.46078
0.4098
0.41961
0.38431
0.38039
0.35882
0.3549
0.37451
0.38039
0.39412
0.41569
0.41569
0.41569
0.42549
0.4451
0.46078
0.47451
0.49412
0.51569
0.5451
0.58431
0.62549
0.66471
0.70588
0.73137
0.7451
0.75098
0.73529
0.71569
0.67647
0.62549
0.58431
0.52941
0.48431
0.4451
0.4098
0.38431
0.35882
0.3549
0.3549
0.3549
0.35882
0.35882
0.36471
0.37059
0.37451
0.36471
0.37451
0.38039
0.38039
0.37451
0.37451
0.36471
0.36471
0.3549
0.3549
0.34902
0.3549
0.37059
0.3902
0.4
0.4
0.3902
0.38039
0.3549
0.35882
0.38039
0.4
0.41569
0.4098
0.4
0.39412
0.39412
0.40392
0.4098
0.37059
0.34902
0.8902
1.5039
1.5039
1.1471
0.47451
0.40392
0.4098
0.39412
0.38039
0.3549
0.3549
0.35882
0.38039
0.38039
0.38431
0.39412
0.40392
0.40392
0.41961
0.43529
0.44902
0.47059
0.5
0.53529
0.56471
0.61569
0.6549
0.6902
0.7098
0.72549
0.73137
0.7098
0.68627
0.6451
0.60588
0.55098
0.49412
0.43922
0.4
0.36471
0.34902
0.33529
0.31961
0.33529
0.32941
0.32353
0.33922
0.3451
0.33922
0.3549
0.36471
0.35882
0.3549
0.35882
0.3549
0.34902
0.33529
0.33529
0.32353
0.31961
0.32353
0.33529
0.32941
0.3549
0.3549
0.35882
0.3549
0.33922
0.31961
0.31373
0.32941
0.35882
0.34902
0.3549
0.33529
0.32353
0.32941
0.33529
0.3451
0.31373
0.44902
1.0765
1.5039
1.5039
0.96078
0.37059
0.31961
0.3549
0.33922
0.33529
0.33529
0.32941
0.33922
0.34902
0.3549
0.36471
0.38039
0.37451
0.3902
0.4098
0.41961
0.4451
0.47059
0.51569
0.55098
0.59608
0.65098
0.70588
0.7451
0.77059
0.78039
0.78039
0.76667
0.73137
0.67647
0.60588
0.52941
0.46471
0.4098
0.35882
0.32353
0.30392
0.2902
0.2902
0.29412
0.3
0.3098
0.31961
0.32941
0.33922
0.3549
0.35882
0.35882
0.36471
0.37451
0.37451
0.37059
0.35882
0.3549
0.34902
0.34902
0.3451
0.33922
0.3549
0.38039
0.39412
0.38431
0.38431
0.36471
0.3451
0.33922
0.3549
0.37059
0.35882
0.35882
0.3549
0.34902
0.34902
0.3549
0.35882
0.31961
0.3
0.88627
1.5039
1.5039
1.1765
0.48039
0.4
0.40392
0.39412
0.37451
0.3549
0.3549
0.35882
0.38039
0.38431
0.4
0.4098
0.4098
0.42549
0.43922
0.4549
0.47451
0.5
0.52549
0.55098
0.59608
0.63529
0.68039
0.7098
0.74118
0.7549
0.7549
0.74118
0.72157
0.68039
0.64118
0.58431
0.52549
0.47451
0.43922
0.40392
0.38039
0.37059
0.35882
0.35882
0.3549
0.37059
0.38039
0.38039
0.38431
0.39412
0.4
0.4
0.39412
0.4
0.4
0.3902
0.38431
0.38431
0.37451
0.35882
0.3549
0.3549
0.3549
0.36471
0.38039
0.39412
0.39412
0.3902
0.37059
0.33922
0.33529
0.3549
0.36471
0.37059
0.35882
0.34902
0.33922
0.33529
0.3451
0.35882
0.32353
0.2902
0.77059
1.5039
1.5039
1.2922
0.51569
0.40392
0.4098
0.3902
0.37059
0.3549
0.3549
0.37059
0.38039
0.39412
0.40392
0.41569
0.41961
0.42941
0.4451
0.46078
0.47451
0.4902
0.51961
0.5451
0.58431
0.61961
0.68039
0.7098
0.74118
0.7549
0.76078
0.7451
0.72549
0.6902
0.6451
0.59608
0.53922
0.4902
0.4549
0.42549
0.4
0.38431
0.37451
0.37451
0.37059
0.37451
0.38039
0.38039
0.38431
0.39412
0.4
0.3902
0.39412
0.3902
0.39412
0.38039
0.38039
0.38039
0.37451
0.37059
0.3549
0.3549
0.3549
0.36471
0.38039
0.39412
0.4
0.3902
0.36471
0.3451
0.33922
0.3549
0.38039
0.38039
0.37059
0.3549
0.3451
0.3549
0.36471
0.37451
0.33529
0.39412
0.82549
1.5039
1.5039
1.2275
0.5098
0.41961
0.42549
0.41569
0.4098
0.38039
0.37059
0.37451
0.39412
0.40392
0.40392
0.4098
0.42549
0.42941
0.43922
0.4549
0.47059
0.49412
0.51569
0.53922
0.57451
0.61961
0.6549
0.68627
0.71569
0.73137
0.73137
0.72157
0.7
0.66471
0.61569
0.56471
0.50588
0.4549
0.41569
0.38431
0.36471
0.3451
0.33922
0.33922
0.3451
0.3549
0.3549
0.3549
0.36471
0.37451
0.37451
0.37451
0.37451
0.37059
0.36471
0.35882
0.3549
0.33922
0.3451
0.33529
0.32941
0.33529
0.33922
0.3549
0.3549
0.35882
0.36471
0.33922
0.31373
0.31373
0.32353
0.33922
0.3451
0.33529
0.32353
0.31961
0.32353
0.31961
0.32353
0.33529
0.29412
0.72549
1.5039
1.5039
1.402
0.49412
0.31961
0.34902
0.33922
0.33922
0.3451
0.33922
0.33529
0.34902
0.3549
0.36471
0.38039
0.38431
0.40392
0.41961
0.42549
0.4451
0.46078
0.49412
0.53529
0.58039
0.63529
0.68039
0.72157
0.75098
0.77647
0.78039
0.77647
0.75098
0.70588
0.6451
0.58039
0.5098
0.43922
0.38431
0.3549
0.32941
0.3098
0.3
0.3
0.30392
0.3098
0.3098
0.3098
0.32941
0.33529
0.33922
0.3451
0.34902
0.34902
0.34902
0.34902
0.34902
0.3451
0.3451
0.33922
0.33922
0.33529
0.33529
0.34902
0.37059
0.38039
0.38039
0.38039
0.35882
0.33529
0.33529
0.3451
0.3549
0.35882
0.35882
0.3549
0.3451
0.34902
0.3451
0.3549
0.31961
0.3
0.87059
1.5039
1.5039
1.1824
0.47451
0.39412
0.40392
0.39412
0.37451
0.37059
0.37059
0.37451
0.39412
0.4
0.40392
0.41961
0.42549
0.42941
0.4451
0.4549
0.47451
0.5
0.52549
0.5549
0.6
0.6451
0.6902
0.72549
0.7549
0.77059
0.77647
0.7549
0.73529
0.70588
0.6549
0.59608
0.53529
0.48039
0.43922
0.40392
0.38039
0.37059
0.3549
0.3549
0.3549
0.35882
0.36471
0.38039
0.38039
0.38431
0.38039
0.38431
0.38039
0.3902
0.38431
0.38039
0.37451
0.37059
0.35882
0.3549
0.3549
0.35882
0.38039
0.41569
0.42549
0.4451
0.4549
0.44902
0.46078
0.42549
0.35882
0.33529
0.31961
0.3098
0.31373
0.3098
0.32353
0.31961
0.32353
0.24902
0.5902
1.5039
1.5039
1.3431
0.51569
0.39412
0.4
0.37059
0.3451
0.32353
0.31373
0.3451
0.35882
0.3549
0.36471
0.38039
0.38431
0.39412
0.41569
0.42549
0.44902
0.47059
0.49412
0.53529
0.57451
0.61569
0.66078
0.6902
0.72157
0.74118
0.7451
0.73529
0.72157
0.67647
0.62941
0.58039
0.52549
0.4902
0.4451
0.4098
0.3902
0.38039
0.37451
0.37059
0.37059
0.37451
0.36471
0.36471
0.37451
0.38039
0.38039
0.37451
0.37451
0.38039
0.37059
0.37451
0.37451
0.37451
0.36471
0.36471
0.3549
0.34902
0.3549
0.3549
0.35882
0.38039
0.39412
0.39412
0.38431
0.37451
0.3451
0.33922
0.3549
0.37451
0.38039
0.37059
0.35882
0.34902
0.3451
0.3549
0.3549
0.3549
0.32353
0.64118
1.5039
1.5039
1.4882
0.56078
0.38039
0.4
0.3902
0.38039
0.36471
0.3549
0.36471
0.38039
0.38039
0.39412
0.40392
0.41569
0.41961
0.43529
0.4549
0.47451
0.5
0.51961
0.5549
0.59608
0.6451
0.68039
0.72549
0.7549
0.78039
0.7902
0.78039
0.76667
0.73137
0.68039
0.62941
0.57451
0.51569
0.46471
0.42549
0.3902
0.37059
0.35882
0.3549
0.36471
0.36471
0.35882
0.37059
0.37059
0.37451
0.38039
0.38039
0.38039
0.37451
0.37059
0.36471
0.36471
0.35882
0.3549
0.3451
0.33529
0.33529
0.3451
0.3549
0.36471
0.37451
0.36471
0.3549
0.32941
0.3098
0.31373
0.32353
0.33922
0.33529
0.33529
0.31373
0.3098
0.3098
0.31373
0.32941
0.3
0.48039
1.1216
1.5039
1.5039
0.8
0.31961
0.3098
0.33922
0.33529
0.33529
0.32941
0.33529
0.33529
0.3451
0.3549
0.37451
0.38039
0.38431
0.4
0.41961
0.43529
0.46078
0.48431
0.51569
0.5451
0.59608
0.64118
0.6902
0.73529
0.7549
0.77059
0.78039
0.76078
0.73529
0.68627
0.62549
0.56078
0.49412
0.43922
0.4
0.36471
0.33922
0.33529
0.33529
0.33529
0.32941
0.33922
0.33529
0.3549
0.36471
0.37059
0.37059
0.38039
0.37451
0.37451
0.37451
0.3549
0.34902
0.3451
0.3451
0.33529
0.33529
0.32941
0.33922
0.3549
0.37451
0.38039
0.37451
0.35882
0.33529
0.33922
0.34902
0.3549
0.3549
0.3549
0.3451
0.33529
0.33529
0.3451
0.34902
0.31961
0.30392
0.85686
1.5039
1.5039
1.202
0.41569
0.31373
0.3451
0.3549
0.34902
0.33529
0.32941
0.33529
0.33529
0.34902
0.37451
0.3902
0.4
0.40392
0.42941
0.4451
0.47059
0.5
0.52549
0.5549
0.59608
0.65098
0.7
0.75098
0.78627
0.8
0.81176
0.8
0.77647
0.72549
0.66471
0.6
0.52549
0.47059
0.42549
0.38431
0.3549
0.33922
0.33529
0.33529
0.3549
0.3549
0.35882
0.35882
0.37059
0.37451
0.38039
0.38039
0.38039
0.38039
0.38431
0.38039
0.37451
0.37059
0.36471
0.3549
0.3549
0.3451
0.33922
0.34902
0.36471
0.38039
0.38039
0.37059
0.3549
0.32941
0.31373
0.33529
0.34902
0.35882
0.3549
0.34902
0.33529
0.33529
0.33529
0.33922
0.3451
0.27451
0.55098
1.4529
1.5039
1.5039
0.6451
0.4
0.39412
0.38431
0.37451
0.3549
0.33922
0.3451
0.35882
0.37451
0.38039
0.38039
0.39412
0.4
0.41961
0.43922
0.44902
0.47451
0.5
0.51961
0.56078
0.6098
0.6549
0.6902
0.72549
0.7451
0.7549
0.73529
0.71569
0.6902
0.6451
0.58431
0.55098
0.49412
0.4451
0.40392
0.37451
0.3549
0.3451
0.33922
0.3451
0.34902
0.3549
0.35882
0.35882
0.36471
0.36471
0.37059
0.36471
0.37059
0.36471
0.37059
0.36471
0.35882
0.3549
0.34902
0.33922
0.32941
0.33529
0.33529
0.35882
0.38039
0.38431
0.37451
0.38039
0.33529
0.33529
0.3451
0.3549
0.36471
0.3549
0.3451
0.33922
0.33529
0.33922
0.34902
0.32941
0.29412
0.73137
1.5039
1.5039
1.2922
0.49412
0.38431
0.39412
0.38039
0.35882
0.34902
0.3451
0.3549
0.37059
0.38039
0.3902
0.40392
0.4098
0.40392
0.43529
0.4549
0.47451
0.49412
0.51569
0.55098
0.5902
0.62941
0.67059
0.71569
0.73529
0.75098
0.7549
0.7451
0.72549
0.6902
0.6451
0.5902
0.52941
0.48431
0.43922
0.4098
0.3902
0.36471
0.3549
0.35882
0.36471
0.37059
0.38039
0.38431
0.39412
0.40392
0.41569
0.42549
0.42549
0.41961
0.41569
0.41961
0.40392
0.40392
0.40392
0.3902
0.38039
0.37059
0.38039
0.39412
0.40392
0.4098
0.40392
0.4
0.36471
0.34902
0.35882
0.37451
0.38039
0.36471
0.3549
0.33922
0.3451
0.3451
0.3549
0.35882
0.3
0.5451
1.3431
1.5039
1.5039
0.63529
0.32941
0.36471
0.37451
0.3549
0.34902
0.33529
0.3451
0.3549
0.37059
0.36471
0.38039
0.39412
0.4
0.40392
0.41961
0.4451
0.46078
0.4902
0.52549
0.56471
0.60588
0.65098
0.68627
0.73137
0.75098
0.7549
0.75098
0.73137
0.69608
0.6549
0.59608
0.53529
0.47059
0.42549
0.38431
0.34902
0.33529
0.32353
0.32941
0.33922
0.3451
0.33922
0.34902
0.35882
0.35882
0.36471
0.37451
0.38039
0.37059
0.37059
0.35882
0.3549
0.35882
0.3549
0.3451
0.32941
0.32353
0.32353
0.33922
0.3549
0.36471
0.35882
0.34902
0.31961
0.3098
0.32353
0.32941
0.33922
0.33922
0.33922
0.32353
0.32941
0.32941
0.33529
0.3451
0.3
0.50588
1.2882
1.5039
1.5039
0.77059
0.34902
0.33529
0.37059
0.3549
0.35882
0.34902
0.3451
0.3549
0.36471
0.37451
0.38039
0.38431
0.39412
0.40392
0.41569
0.42941
0.4549
0.48431
0.52549
0.56471
0.6098
0.66471
0.7098
0.75098
0.77059
0.78039
0.77647
0.7549
0.71569
0.6549
0.5902
0.52549
0.46078
0.4098
0.37059
0.33922
0.31961
0.3098
0.3098
0.3098
0.32941
0.33529
0.33922
0.3451
0.3549
0.3549
0.37059
0.37451
0.37451
0.37059
0.37451
0.36471
0.35882
0.3549
0.34902
0.33922
0.3451
0.33922
0.3451
0.37059
0.38039
0.38431
0.38039
0.37451
0.3451
0.33529
0.3451
0.35882
0.36471
0.3549
0.3549
0.34902
0.3451
0.34902
0.3549
0.36471
0.3
0.5098
1.3176
1.5039
1.5039
0.78039
0.42549
0.40392
0.4
0.39412
0.37451
0.3549
0.35882
0.38039
0.3902
0.39412
0.39412
0.40392
0.41961
0.42941
0.4451
0.46471
0.48039
0.5
0.53529
0.57451
0.61961
0.66471
0.70588
0.73529
0.76078
0.77059
0.7549
0.73529
0.70588
0.6549
0.6
0.53922
0.49412
0.4549
0.4098
0.38039
0.35882
0.34902
0.34902
0.34902
0.3549
0.35882
0.37059
0.38039
0.38039
0.38039
0.38039
0.38039
0.37059
0.37451
0.37059
0.36471
0.35882
0.3549
0.3549
0.34902
0.3451
0.33922
0.34902
0.37451
0.3902
0.4
0.3902
0.38039
0.34902
0.3451
0.3549
0.36471
0.37451
0.37059
0.37451
0.3549
0.34902
0.34902
0.3549
0.35882
0.3
0.53922
1.3784
1.5039
1.5039
0.67647
0.4
0.39412
0.39412
0.38039
0.35882
0.34902
0.3549
0.37059
0.38039
0.37451
0.39412
0.40392
0.4098
0.42549
0.4451
0.46078
0.47451
0.50588
0.53922
0.57451
0.61961
0.66078
0.7
0.74118
0.77059
0.77059
0.76078
0.7451
0.70588
0.66078
0.60588
0.55098
0.4902
0.4451
0.4098
0.38431
0.36471
0.3549
0.3549
0.3549
0.35882
0.36471
0.37059
0.42941
0.62549
0.85098
0.96667
0.99608
0.52941
-0.50196
-0.50196
-0.50196
-0.49216
-0.16275
0.023529
0.18824
0.3098
0.41961
0.51569
0.56471
0.59608
0.61569
0.61569
0.62549
0.61961
0.67647
0.75098
0.81176
0.87647
0.95686
1.0412
1.1275
1.2176
1.298
1.3627
1.4078
1.4118
1.3725
1.302
1.1961
1.0667
0.93725
0.80588
0.68039
0.57059
0.47451
0.4
0.3451
0.30392
0.28431
0.26471
0.2549
0.24902
0.2451
0.2451
0.23922
0.23333
0.22353
0.22353
0.22353
0.22353
0.21961
0.21373
0.21373
0.21373
0.21373
0.21373
0.21961
0.21373
0.21961
0.21373
0.22353
0.23333
0.23922
0.23922
0.23922
0.23922
0.2451
0.24902
0.2549
0.2549
0.26471
0.25882
0.26863
0.26471
0.26471
0.26863
0.26863
0.27843
0.28431
0.28431
0.29412
0.3
0.2902
0.3
0.30392
0.3098
0.3098
0.3098
0.31373
0.31961
0.32941
0.3549
0.37451
0.38039
0.37451
0.36471
0.34902
0.3549
0.35882
0.37451
0.38039
0.38039
0.37059
0.36471
0.36471
0.37451
0.38039
0.32941
0.4902
1.1471
1.5039
1.5039
0.96667
0.41569
0.38039
0.4
0.38039
0.3549
0.34902
0.35882
0.35882
0.37451
0.38039
0.38039
0.38039
0.3902
0.4
0.4098
0.42549
0.4451
0.47059
0.49412
0.53529
0.57451
0.61569
0.66471
0.71569
0.7549
0.78039
0.8
0.80588
0.81569
0.8
0.76667
0.7098
0.65098
0.58431
0.52941
0.48039
0.43922
0.4
0.37451
0.36471
0.3549
0.34902
0.34902
0.3549
0.35882
0.35882
0.36471
0.35882
0.36471
0.37059
0.37059
0.35882
0.3549
0.34902
0.3451
0.33922
0.33922
0.33529
0.33529
0.34902
0.36471
0.38039
0.38039
0.37451
0.3549
0.32941
0.32353
0.33529
0.3549
0.35882
0.34902
0.33529
0.33529
0.33529
0.33529
0.33922
0.3451
0.27843
0.7
1.5039
1.5039
1.4176
0.53922
0.38039
0.38039
0.37059
0.35882
0.3451
0.33922
0.33922
0.35882
0.37451
0.38039
0.39412
0.4098
0.42549
0.43922
0.44902
0.48039
0.5
0.52549
0.56078
0.6
0.65098
0.6902
0.73137
0.76078
0.77647
0.76667
0.75098
0.72157
0.68039
0.62941
0.57059
0.5098
0.4549
0.4098
0.38039
0.3549
0.33529
0.32941
0.32353
0.32941
0.33529
0.33529
0.33922
0.3451
0.34902
0.3549
0.35882
0.35882
0.36471
0.37059
0.37059
0.36471
0.36471
0.34902
0.3549
0.34902
0.3451
0.33922
0.3451
0.36471
0.38431
0.39412
0.38431
0.37451
0.34902
0.3451
0.3549
0.37059
0.38039
0.37451
0.37059
0.34902
0.3451
0.3549
0.36471
0.37059
0.31373
0.58039
1.4431
1.5039
1.5039
0.66471
0.39412
0.40392
0.39412
0.38039
0.35882
0.35882
0.35882
0.38039
0.38039
0.3902
0.4
0.40392
0.41569
0.42941
0.44902
0.4549
0.48039
0.50588
0.53922
0.57451
0.61961
0.66471
0.70588
0.74118
0.76667
0.77059
0.7549
0.73529
0.7098
0.66471
0.60588
0.5451
0.5
0.44902
0.40392
0.38039
0.3549
0.34902
0.3451
0.33922
0.3451
0.34902
0.3549
0.35882
0.35882
0.36471
0.37451
0.37059
0.38039
0.37451
0.37059
0.37451
0.37059
0.36471
0.3549
0.3549
0.3451
0.3451
0.35882
0.38431
0.39412
0.3902
0.38039
0.37059
0.33922
0.33529
0.3451
0.3549
0.35882
0.3549
0.33922
0.33529
0.33529
0.3451
0.34902
0.3549
0.30392
0.70588
1.5039
1.5039
1.3471
0.51569
0.37451
0.38431
0.38431
0.37451
0.35882
0.3549
0.37059
0.39412
0.4098
0.42549
0.42941
0.43922
0.44902
0.46471
0.47451
0.4902
0.5098
0.52941
0.56471
0.6
0.63529
0.67647
0.71569
0.73529
0.75098
0.7549
0.7549
0.73137
0.6902
0.62941
0.56471
0.50588
0.44902
0.4
0.35882
0.33922
0.31961
0.31373
0.31373
0.32353
0.32941
0.33529
0.3451
0.34902
0.3549
0.3549
0.35882
0.35882
0.35882
0.3549
0.3451
0.33922
0.33529
0.33529
0.33529
0.32941
0.32353
0.33529
0.3451
0.3549
0.36471
0.37059
0.3549
0.32353
0.3098
0.31373
0.32941
0.3451
0.33922
0.32941
0.31373
0.31373
0.3098
0.31961
0.33529
0.30392
0.47451
1.1627
1.5039
1.5039
0.83529
0.34902
0.31961
0.3549
0.34902
0.3451
0.33529
0.33529
0.3451
0.34902
0.35882
0.38039
0.38039
0.3902
0.40392
0.41569
0.42549
0.4549
0.48431
0.51961
0.56471
0.6
0.65098
0.7098
0.75098
0.78039
0.8
0.8
0.78039
0.7451
0.6902
0.61569
0.55098
0.48431
0.42941
0.38039
0.34902
0.32353
0.3098
0.3098
0.31961
0.31961
0.31961
0.31961
0.33529
0.33529
0.3451
0.34902
0.35882
0.37059
0.36471
0.37451
0.36471
0.35882
0.34902
0.33922
0.33922
0.33529
0.32941
0.32941
0.34902
0.35882
0.3549
0.34902
0.33922
0.31961
0.3098
0.31373
0.32353
0.33529
0.32353
0.32353
0.31961
0.31373
0.31373
0.32353
0.32941
0.28431
0.51569
1.3078
1.5039
1.5039
0.75098
0.35882
0.34902
0.37451
0.37451
0.38039
0.35882
0.34902
0.3549
0.35882
0.38039
0.4
0.40392
0.41569
0.42941
0.44902
0.47451
0.49412
0.51961
0.5549
0.5902
0.64118
0.68627
0.73137
0.77647
0.8
0.81176
0.81176
0.78627
0.7451
0.69608
0.62941
0.56471
0.50588
0.4549
0.4098
0.38039
0.3549
0.33922
0.33529
0.33922
0.33922
0.3549
0.35882
0.35882
0.36471
0.37059
0.38039
0.38431
0.38431
0.38039
0.38039
0.37451
0.37451
0.36471
0.36471
0.35882
0.34902
0.3451
0.3451
0.35882
0.38039
0.3902
0.38039
0.38039
0.34902
0.33529
0.3451
0.36471
0.38039
0.37451
0.36471
0.3451
0.33922
0.33922
0.3451
0.34902
0.3
0.42941
1.0275
1.5039
1.5039
0.99216
0.44902
0.4
0.39412
0.37451
0.3549
0.33922
0.33529
0.34902
0.36471
0.38039
0.38039
0.4
0.40392
0.4098
0.42549
0.4451
0.46471
0.49412
0.51961
0.56078
0.6
0.6549
0.69608
0.73137
0.76078
0.77647
0.77647
0.7549
0.72549
0.67647
0.61569
0.56078
0.51569
0.4549
0.41569
0.38039
0.35882
0.34902
0.33922
0.3451
0.3451
0.3549
0.35882
0.35882
0.35882
0.36471
0.35882
0.36471
0.37059
0.37059
0.37059
0.3549
0.3549
0.34902
0.3549
0.3451
0.3451
0.33529
0.33922
0.35882
0.37059
0.38039
0.37059
0.35882
0.33922
0.32353
0.33529
0.3451
0.3549
0.33922
0.33922
0.32353
0.31961
0.32941
0.33529
0.33922
0.27451
0.50588
1.2627
1.5039
1.5039
0.70588
0.38039
0.37059
0.37451
0.34902
0.32941
0.32353
0.32941
0.34902
0.3549
0.3549
0.37451
0.38039
0.3902
0.4098
0.42549
0.4451
0.47059
0.49412
0.52549
0.57059
0.61569
0.66078
0.70588
0.73529
0.7549
0.76078
0.7549
0.74118
0.70588
0.6549
0.59608
0.53529
0.47451
0.42941
0.39412
0.36471
0.34902
0.33529
0.33529
0.33922
0.34902
0.35882
0.36471
0.38039
0.38431
0.39412
0.4
0.39412
0.4
0.39412
0.3902
0.38039
0.37451
0.37059
0.36471
0.34902
0.33922
0.33529
0.34902
0.36471
0.37451
0.38039
0.38039
0.37059
0.33529
0.33529
0.33922
0.34902
0.3549
0.3451
0.33529
0.32353
0.32941
0.32941
0.32941
0.33529
0.2902
0.56078
1.4118
1.5039
1.5039
0.62549
0.34902
0.35882
0.37059
0.3549
0.3451
0.33529
0.33922
0.34902
0.3549
0.36471
0.38039
0.4
0.4
0.41569
0.43922
0.44902
0.47059
0.50588
0.53922
0.57451
0.61961
0.66471
0.71569
0.75098
0.77647
0.78039
0.77647
0.7451
0.71569
0.65098
0.59608
0.52549
0.46471
0.41569
0.38039
0.3451
0.32941
0.31961
0.31961
0.33529
0.32941
0.33529
0.33529
0.3451
0.34902
0.3549
0.3549
0.36471
0.36471
0.37059
0.3549
0.34902
0.33922
0.33922
0.33529
0.32941
0.32353
0.32353
0.33529
0.34902
0.3549
0.35882
0.33922
0.32941
0.3098
0.31961
0.32353
0.33529
0.33529
0.33529
0.32353
0.3098
0.31373
0.31961
0.31373
0.32941
0.27843
0.65098
1.5039
1.5039
1.5039
0.5549
0.34902
0.37059
0.37451
0.3549
0.33922
0.32941
0.33529
0.3451
0.35882
0.36471
0.38039
0.38039
0.38431
0.4
0.41569
0.42941
0.46078
0.4902
0.52549
0.57059
0.61961
0.67647
0.73137
0.77647
0.79608
0.8
0.7902
0.76667
0.71569
0.65098
0.58431
0.5098
0.4549
0.4098
0.37451
0.3451
0.32941
0.31961
0.3098
0.31373
0.32941
0.33529
0.33922
0.3451
0.35882
0.3549
0.35882
0.36471
0.37059
0.36471
0.35882
0.35882
0.3549
0.3549
0.33922
0.33529
0.33529
0.32941
0.33529
0.3549
0.37451
0.38039
0.37451
0.36471
0.32941
0.32353
0.33529
0.33922
0.3549
0.34902
0.33922
0.32941
0.32941
0.33529
0.3451
0.3549
0.2902
0.43922
1.1275
1.5039
1.5039
0.93725
0.46078
0.40392
0.38431
0.38039
0.36471
0.3549
0.3549
0.35882
0.38039
0.3902
0.4
0.40392
0.4098
0.42549
0.44902
0.47059
0.48431
0.5098
0.53922
0.57451
0.61961
0.66471
0.7098
0.7451
0.76667
0.77647
0.77059
0.75098
0.71569
0.66471
0.60588
0.5451
0.4902
0.4451
0.4
0.37059
0.34902
0.33922
0.33529
0.33529
0.33529
0.33922
0.34902
0.3549
0.3549
0.3549
0.34902
0.35882
0.35882
0.3549
0.3549
0.3549
0.3549
0.3451
0.33922
0.33922
0.33529
0.32941
0.32941
0.33922
0.36471
0.38039
0.37451
0.36471
0.3451
0.32353
0.32941
0.33529
0.3549
0.3549
0.34902
0.3451
0.33529
0.33922
0.3451
0.3549
0.31961
0.28431
0.8
1.5039
1.5039
1.2275
0.48431
0.3902
0.38431
0.37059
0.3549
0.33529
0.33529
0.34902
0.35882
0.37451
0.38039
0.38431
0.39412
0.40392
0.41961
0.43529
0.46078
0.48431
0.5098
0.55098
0.5902
0.64118
0.68627
0.72549
0.75098
0.76667
0.76078
0.75098
0.72157
0.68039
0.62941
0.56078
0.50588
0.4549
0.4098
0.37451
0.3549
0.3451
0.33529
0.33529
0.33529
0.33529
0.33922
0.34902
0.3451
0.3549
0.3549
0.3549
0.35882
0.35882
0.35882
0.3549
0.3549
0.34902
0.3451
0.33529
0.32941
0.32353
0.32353
0.33529
0.3549
0.37451
0.38431
0.38039
0.37451
0.35882
0.3549
0.37451
0.39412
0.4
0.38431
0.37451
0.36471
0.36471
0.36471
0.37059
0.38039
0.32353
0.68627
1.5039
1.5039
1.5039
0.58039
0.38431
0.38431
0.37059
0.35882
0.3549
0.3451
0.34902
0.3549
0.37059
0.37451
0.38039
0.3902
0.4
0.40392
0.42549
0.4451
0.47059
0.49412
0.53529
0.57059
0.61961
0.66471
0.70588
0.73137
0.75098
0.7549
0.7451
0.72549
0.68039
0.62941
0.56471
0.50588
0.4451
0.39412
0.35882
0.32941
0.3098
0.29412
0.3
0.30392
0.31373
0.31961
0.32941
0.33529
0.33529
0.33922
0.33922
0.34902
0.34902
0.33922
0.33529
0.3451
0.33529
0.33529
0.32941
0.32941
0.31961
0.31961
0.32353
0.3549
0.36471
0.37059
0.3549
0.34902
0.31373
0.3098
0.33529
0.33922
0.3451
0.33922
0.32941
0.31373
0.32941
0.32941
0.33529
0.33922
0.29412
0.58431
1.502
1.5039
1.5039
0.64118
0.34902
0.35882
0.34902
0.3451
0.33922
0.33922
0.33529
0.34902
0.3549
0.36471
0.38039
0.38431
0.3902
0.40392
0.42549
0.44902
0.46078
0.5
0.52549
0.57059
0.62941
0.6902
0.73529
0.78039
0.80588
0.81176
0.8
0.77059
0.72157
0.65098
0.57059
0.49412
0.42941
0.38039
0.33922
0.31373
0.29412
0.28431
0.28431
0.28431
0.3
0.30392
0.3098
0.31373
0.31961
0.33529
0.33922
0.3451
0.34902
0.33922
0.33922
0.3451
0.3451
0.34902
0.34902
0.33529
0.32353
0.31961
0.31961
0.33529
0.35882
0.37059
0.37451
0.35882
0.33922
0.31961
0.32941
0.33922
0.3549
0.34902
0.3451
0.33529
0.33529
0.32941
0.33529
0.33922
0.30392
0.27843
0.82549
1.5039
1.5039
1.2373
0.49412
0.39412
0.38431
0.38039
0.37059
0.3549
0.34902
0.3549
0.35882
0.38039
0.38039
0.39412
0.40392
0.41569
0.43529
0.4549
0.47451
0.49412
0.51569
0.55098
0.59608
0.6451
0.6902
0.73529
0.76667
0.78039
0.7902
0.77059
0.7451
0.7
0.6451
0.58039
0.51961
0.46471
0.41961
0.38431
0.35882
0.3451
0.33529
0.33529
0.33529
0.33922
0.3451
0.3549
0.3549
0.35882
0.37451
0.38039
0.37451
0.37059
0.37451
0.37451
0.37059
0.36471
0.37059
0.3549
0.3549
0.34902
0.3549
0.3549
0.37451
0.38431
0.4
0.38431
0.38039
0.34902
0.33922
0.34902
0.3549
0.38039
0.37059
0.36471
0.34902
0.3451
0.34902
0.3549
0.3549
0.3098
0.4098
0.97647
1.5039
1.5039
1.0275
0.44902
0.4
0.39412
0.3902
0.37451
0.3549
0.3549
0.34902
0.38039
0.40392
0.40392
0.4098
0.41569
0.42941
0.44902
0.46471
0.4902
0.5098
0.53922
0.57451
0.6098
0.6549
0.70588
0.74118
0.77059
0.78039
0.77647
0.76667
0.73529
0.6902
0.63529
0.58039
0.51569
0.46471
0.41961
0.3902
0.37059
0.3549
0.3451
0.3451
0.34902
0.3549
0.3549
0.36471
0.36471
0.37451
0.38039
0.37451
0.36471
0.38039
0.38039
0.37451
0.37059
0.36471
0.3549
0.34902
0.3451
0.3451
0.3451
0.33922
0.37059
0.38431
0.4
0.38431
0.38039
0.34902
0.33529
0.33529
0.3549
0.37451
0.35882
0.3549
0.33922
0.33529
0.3451
0.3451
0.3549
0.3098
0.47451
1.1118
1.5039
1.5039
0.85098
0.4
0.38039
0.39412
0.38039
0.3549
0.3451
0.34902
0.35882
0.38039
0.38431
0.4
0.40392
0.41961
0.42549
0.4451
0.47059
0.49412
0.5098
0.53922
0.57451
0.61961
0.67059
0.71569
0.7549
0.78039
0.79608
0.8
0.78039
0.7549
0.7098
0.65098
0.6
0.5451
0.48431
0.4451
0.41569
0.38431
0.36471
0.3549
0.3549
0.3549
0.37059
0.37059
0.37059
0.37451
0.38039
0.38039
0.38039
0.37451
0.37059
0.36471
0.36471
0.35882
0.3549
0.3549
0.34902
0.34902
0.3451
0.33529
0.33529
0.34902
0.35882
0.37059
0.37451
0.36471
0.34902
0.31373
0.31373
0.33529
0.33922
0.33529
0.32941
0.31961
0.31373
0.3098
0.31961
0.33529
0.3098
0.28431
0.80588
1.5039
1.5039
1.2176
0.42941
0.32941
0.3549
0.33922
0.33922
0.32353
0.32353
0.31961
0.33922
0.34902
0.3549
0.37059
0.38039
0.3902
0.40392
0.42941
0.44902
0.47059
0.50588
0.5451
0.59608
0.6451
0.68039
0.73137
0.76078
0.78039
0.78627
0.77647
0.7451
0.69608
0.63529
0.56078
0.5
0.43922
0.38431
0.34902
0.32353
0.30392
0.3
0.30392
0.3098
0.31961
0.32353
0.32353
0.33529
0.33922
0.3549
0.3549
0.34902
0.3549
0.3549
0.34902
0.34902
0.3451
0.33922
0.33529
0.32353
0.31961
0.3098
0.31373
0.32353
0.34902
0.3549
0.35882
0.3549
0.3549
0.32941
0.31961
0.33529
0.3549
0.3549
0.3451
0.33529
0.32353
0.33529
0.33529
0.33529
0.3451
0.29412
0.5902
1.5039
1.5039
1.5039
0.62941
0.35882
0.37451
0.36471
0.3451
0.33529
0.32353
0.32941
0.33529
0.33922
0.3549
0.37059
0.37451
0.37451
0.39412
0.41569
0.43529
0.46078
0.4902
0.52941
0.58039
0.62549
0.68039
0.74118
0.78039
0.81176
0.82157
0.80588
0.78039
0.73529
0.67647
0.6098
0.53922
0.47451
0.42941
0.38431
0.35882
0.33529
0.32941
0.32353
0.32941
0.33922
0.34902
0.3549
0.3549
0.37059
0.37451
0.38039
0.38431
0.38039
0.38039
0.38431
0.38039
0.37451
0.37059
0.37451
0.36471
0.35882
0.3549
0.3549
0.3549
0.36471
0.3902
0.40392
0.40392
0.4
0.38431
0.35882
0.3549
0.37059
0.38431
0.39412
0.38431
0.38039
0.37059
0.37059
0.38039
0.38039
0.38431
0.31961
0.66078
1.5039
1.5039
1.5039
0.62549
0.41961
0.4098
0.4
0.39412
0.38039
0.36471
0.35882
0.38039
0.38431
0.3902
0.40392
0.4098
0.41961
0.43529
0.46078
0.48039
0.50588
0.51961
0.5549
0.59608
0.64118
0.6902
0.73529
0.77059
0.78627
0.79608
0.78039
0.7549
0.72157
0.66078
0.6
0.53922
0.48431
0.43922
0.4
0.37451
0.35882
0.34902
0.3451
0.3451
0.3549
0.3549
0.35882
0.36471
0.37059
0.38039
0.38039
0.37451
0.37451
0.37059
0.37059
0.37451
0.37059
0.36471
0.3549
0.3549
0.3451
0.33922
0.33922
0.3451
0.36471
0.38039
0.39412
0.4
0.3902
0.36471
0.33922
0.33922
0.3549
0.37059
0.36471
0.35882
0.3549
0.3451
0.3549
0.34902
0.3549
0.31961
0.3
0.86667
1.5039
1.5039
1.1471
0.46078
0.38039
0.38039
0.38039
0.36471
0.3451
0.3451
0.33922
0.36471
0.38039
0.38431
0.3902
0.4
0.40392
0.41961
0.4451
0.46471
0.48431
0.51569
0.55098
0.59608
0.64118
0.6902
0.72549
0.7549
0.77647
0.78039
0.76667
0.73529
0.69608
0.64118
0.58039
0.51569
0.4549
0.40392
0.38039
0.3549
0.33922
0.33529
0.33529
0.33529
0.33922
0.3451
0.3451
0.34902
0.3549
0.36471
0.37451
0.37451
0.37059
0.36471
0.35882
0.37059
0.37059
0.3549
0.3549
0.34902
0.3451
0.33922
0.33529
0.3549
0.38039
0.39412
0.39412
0.38039
0.37451
0.3451
0.33922
0.3549
0.36471
0.37059
0.3549
0.34902
0.33922
0.33922
0.3451
0.3549
0.34902
0.31373
0.6549
1.5039
1.5039
1.4922
0.57451
0.38431
0.39412
0.39412
0.37451
0.35882
0.3549
0.3549
0.37059
0.38431
0.39412
0.40392
0.41569
0.42549
0.4451
0.47059
0.48431
0.5098
0.53922
0.57059
0.6098
0.66078
0.70588
0.75098
0.77647
0.78039
0.7902
0.78627
0.76667
0.73137
0.68039
0.61569
0.55098
0.49412
0.4451
0.40392
0.36471
0.34902
0.33529
0.33529
0.33529
0.33922
0.33922
0.3549
0.3549
0.36471
0.37451
0.37059
0.37059
0.36471
0.36471
0.37059
0.35882
0.3549
0.34902
0.3451
0.33922
0.33922
0.33529
0.32941
0.33529
0.3549
0.36471
0.36471
0.36471
0.34902
0.31373
0.3098
0.31373
0.33529
0.33922
0.33529
0.33529
0.32353
0.31961
0.32353
0.31961
0.32941
0.3
0.59608
1.4784
1.5039
1.5039
0.6098
0.33529
0.3549
0.35882
0.34902
0.33922
0.33529
0.33529
0.33922
0.3549
0.3549
0.36471
0.38431
0.39412
0.40392
0.42549
0.43922
0.47059
0.5
0.52941
0.57451
0.62549
0.67059
0.71569
0.76667
0.78627
0.79608
0.78039
0.77059
0.73137
0.67059
0.6
0.52941
0.46471
0.40392
0.36471
0.33922
0.31961
0.3098
0.3098
0.3098
0.31961
0.31373
0.32353
0.33529
0.33529
0.3451
0.3549
0.3549
0.35882
0.36471
0.3549
0.3451
0.33922
0.33922
0.33529
0.33922
0.33529
0.32941
0.33529
0.3451
0.35882
0.37451
0.37059
0.35882
0.34902
0.32353
0.31373
0.33529
0.33529
0.33529
0.33529
0.32941
0.31373
0.31373
0.31961
0.32941
0.31961
0.27451
0.57451
1.5039
1.5039
1.5039
0.60588
0.33529
0.3451
0.3549
0.35882
0.3549
0.34902
0.33922
0.3451
0.3549
0.38039
0.3902
0.40392
0.4098
0.42549
0.4451
0.47059
0.49412
0.51961
0.5549
0.59608
0.6451
0.69608
0.7451
0.79608
0.81569
0.82157
0.82549
0.79608
0.75098
0.6902
0.62941
0.5549
0.4902
0.43529
0.4
0.37059
0.3451
0.33529
0.33529
0.33529
0.33529
0.33922
0.3549
0.35882
0.37059
0.37451
0.37059
0.37451
0.38039
0.37451
0.37451
0.38039
0.37059
0.37059
0.36471
0.3549
0.3549
0.3549
0.3451
0.34902
0.36471
0.3902
0.4
0.39412
0.3902
0.35882
0.3451
0.3549
0.35882
0.38039
0.37451
0.37451
0.34902
0.3451
0.34902
0.3549
0.35882
0.3
0.42549
1.051
1.5039
1.5039
0.98235
0.4549
0.4098
0.4
0.3902
0.38039
0.3549
0.3549
0.35882
0.38039
0.38431
0.3902
0.40392
0.41569
0.41961
0.4451
0.46471
0.48039
0.5
0.51961
0.56078
0.60588
0.6549
0.7
0.73529
0.76667
0.78039
0.78039
0.76078
0.73137
0.68039
0.62941
0.57451
0.5098
0.46078
0.41961
0.38039
0.35882
0.3451
0.33922
0.33922
0.34902
0.34902
0.3549
0.3549
0.35882
0.35882
0.35882
0.37451
0.37059
0.37451
0.37451
0.38039
0.37059
0.36471
0.3549
0.3549
0.34902
0.33922
0.33922
0.34902
0.36471
0.38039
0.39412
0.3902
0.38039
0.3549
0.3451
0.3451
0.3549
0.37451
0.35882
0.3549
0.34902
0.34902
0.34902
0.3549
0.3549
0.30392
0.3
0.96667
1.5039
1.5039
1.0059
0.43529
0.3902
0.39412
0.38039
0.35882
0.3451
0.33529
0.3451
0.37059
0.38039
0.39412
0.40392
0.41569
0.41569
0.43529
0.46078
0.48039
0.5
0.51961
0.5549
0.60588
0.6549
0.7
0.73137
0.7549
0.77647
0.77647
0.76667
0.74118
0.6902
0.63529
0.58039
0.51961
0.47059
0.42549
0.39412
0.37059
0.3549
0.3549
0.3549
0.35882
0.38039
0.38039
0.39412
0.39412
0.39412
0.4
0.40392
0.40392
0.40392
0.40392
0.4
0.3902
0.38039
0.38039
0.38039
0.37451
0.35882
0.3549
0.3549
0.38039
0.39412
0.4
0.3902
0.38039
0.3549
0.3451
0.33922
0.3549
0.37059
0.36471
0.35882
0.33922
0.3451
0.33922
0.34902
0.3549
0.31373
0.42941
1.0373
1.5039
1.5039
0.91569
0.37451
0.33529
0.36471
0.35882
0.34902
0.33529
0.33529
0.3451
0.3549
0.3549
0.37059
0.38039
0.4
0.4
0.4098
0.42941
0.4549
0.48039
0.51569
0.55098
0.59608
0.64118
0.6902
0.72549
0.75098
0.76667
0.78039
0.76667
0.73137
0.68039
0.61961
0.55098
0.48039
0.41961
0.37451
0.3451
0.31961
0.3098
0.29412
0.3
0.3
0.3098
0.31961
0.32353
0.33529
0.33529
0.34902
0.3451
0.33922
0.3451
0.33922
0.33529
0.33922
0.32941
0.31961
0.31961
0.31373
0.3098
0.30392
0.31373
0.33922
0.34902
0.3549
0.3549
0.3451
0.31373
0.3098
0.32353
0.33529
0.33922
0.33529
0.33529
0.32353
0.31961
0.31373
0.32941
0.32941
0.28431
0.52941
1.3882
1.5039
1.5039
0.72549
0.37059
0.38039
0.37451
0.3549
0.3451
0.33529
0.33529
0.33529
0.34902
0.35882
0.37059
0.37451
0.38039
0.3902
0.41569
0.42549
0.4451
0.47451
0.5098
0.56078
0.61569
0.66471
0.72157
0.76667
0.7902
0.8
0.8
0.77647
0.73529
0.68039
0.61569
0.55098
0.48431
0.42941
0.38039
0.3549
0.3451
0.33529
0.32353
0.32353
0.33529
0.3451
0.34902
0.34902
0.3549
0.36471
0.37059
0.37451
0.37451
0.37451
0.37451
0.38039
0.37059
0.36471
0.3549
0.3549
0.34902
0.3451
0.33922
0.34902
0.37059
0.3902
0.4
0.3902
0.38431
0.35882
0.34902
0.3549
0.36471
0.37451
0.37059
0.35882
0.3451
0.3451
0.3549
0.35882
0.35882
0.3
0.4549
1.151
1.5039
1.5039
0.8902
0.43922
0.4098
0.39412
0.38039
0.36471
0.3549
0.34902
0.3549
0.37451
0.38431
0.38039
0.4
0.40392
0.41569
0.42941
0.4549
0.47451
0.5
0.51961
0.55098
0.59608
0.65098
0.6902
0.73137
0.7549
0.77059
0.77647
0.7549
0.72549
0.68627
0.62549
0.57059
0.5098
0.4549
0.41569
0.38039
0.35882
0.3451
0.33529
0.3451
0.3451
0.34902
0.3549
0.3549
0.35882
0.35882
0.35882
0.35882
0.37059
0.35882
0.36471
0.35882
0.35882
0.3549
0.3549
0.3549
0.3451
0.33922
0.3451
0.33529
0.3549
0.37451
0.38431
0.3902
0.38039
0.35882
0.33922
0.3451
0.35882
0.38039
0.37059
0.36471
0.3549
0.3451
0.34902
0.3549
0.36471
0.32353
0.3098
0.87059
1.5039
1.5039
1.1216
0.4549
0.3902
0.39412
0.38431
0.37059
0.34902
0.33922
0.33529
0.35882
0.38039
0.39412
0.40392
0.4098
0.41961
0.42941
0.4549
0.48039
0.5
0.52549
0.56078
0.6
0.6451
0.68627
0.72549
0.76667
0.78627
0.7902
0.78039
0.75098
0.7098
0.65098
0.59608
0.53922
0.48039
0.43529
0.40392
0.37451
0.3549
0.34902
0.34902
0.34902
0.3549
0.3549
0.3549
0.3549
0.36471
0.37059
0.37451
0.37451
0.37451
0.37059
0.36471
0.3549
0.3549
0.3549
0.34902
0.34902
0.33922
0.33922
0.3451
0.35882
0.38039
0.3902
0.38431
0.38039
0.34902
0.3451
0.35882
0.38039
0.39412
0.39412
0.39412
0.38039
0.37059
0.37451
0.38039
0.38431
0.32941
0.4902
1.1627
1.5039
1.5039
0.85686
0.39412
0.37059
0.38431
0.37059
0.35882
0.3451
0.3451
0.3549
0.35882
0.38039
0.37451
0.38431
0.4
0.40392
0.41961
0.4451
0.47059
0.49412
0.51961
0.55098
0.59608
0.6451
0.6902
0.72549
0.75098
0.76667
0.77647
0.76667
0.73529
0.68627
0.61961
0.56078
0.4902
0.43922
0.39412
0.35882
0.33529
0.31961
0.31373
0.31373
0.32941
0.32941
0.33529
0.33922
0.33922
0.33922
0.34902
0.3549
0.3549
0.3549
0.33922
0.33529
0.32941
0.31961
0.3
0.30392
0.31373
0.34902
0.37451
0.41961
0.44902
0.42549
0.37451
0.32941
0.29412
0.28431
0.27451
0.28431
0.28431
0.28431
0.3
0.30392
0.3098
0.21961
0.41961
1.2529
1.5039
1.5039
0.68039
0.3451
0.3549
0.32941
0.3098
0.29412
0.2902
0.29412
0.3098
0.32353
0.32941
0.34902
0.35882
0.37451
0.39412
0.41961
0.43529
0.46078
0.4902
0.51961
0.56078
0.61569
0.67059
0.72157
0.76667
0.78627
0.8
0.79608
0.77647
0.72157
0.66471
0.60588
0.52941
0.47059
0.41569
0.37059
0.33922
0.32353
0.31961
0.31373
0.31961
0.32941
0.33529
0.33529
0.3451
0.3451
0.3549
0.35882
0.3549
0.3549
0.34902
0.3451
0.33922
0.3451
0.33529
0.32941
0.31961
0.31961
0.31961
0.31373
0.31373
0.31961
0.31373
0.31961
0.33529
0.35882
0.37059
0.37059
0.36471
0.3451
0.32941
0.33529
0.3549
0.36471
0.35882
0.35882
0.34902
0.34902
0.34902
0.3549
0.35882
0.3098
0.4902
1.1961
1.5039
1.5039
0.85686
0.39412
0.38039
0.4
0.3902
0.38039
0.37451
0.37059
0.36471
0.37451
0.3902
0.40392
0.4098
0.41961
0.42941
0.44902
0.47059
0.49412
0.51961
0.5451
0.57451
0.62549
0.67647
0.73137
0.78039
0.81176
0.82549
0.83137
0.81569
0.78627
0.74118
0.67647
0.6098
0.55098
0.4902
0.43529
0.4
0.37451
0.3549
0.3451
0.33922
0.3451
0.3549
0.35882
0.36471
0.36471
0.37451
0.38039
0.38431
0.38431
0.38431
0.38431
0.38039
0.37059
0.35882
0.3549
0.3549
0.34902
0.3451
0.33922
0.33922
0.35882
0.38039
0.39412
0.3902
0.38039
0.35882
0.33529
0.3451
0.3549
0.37451
0.36471
0.3549
0.3451
0.33922
0.3451
0.3451
0.34902
0.3
0.29412
0.95098
1.5039
1.5039
1.0275
0.43922
0.3902
0.38039
0.37059
0.3549
0.3451
0.3451
0.33922
0.3549
0.37059
0.38039
0.3902
0.40392
0.40392
0.41961
0.44902
0.47451
0.5
0.52941
0.56471
0.60588
0.6549
0.7
0.73529
0.77647
0.78627
0.78039
0.76667
0.7451
0.7
0.64118
0.58039
0.52549
0.47059
0.42549
0.3902
0.36471
0.34902
0.33922
0.33922
0.33529
0.3451
0.3549
0.3549
0.3549
0.36471
0.36471
0.35882
0.36471
0.3549
0.3549
0.3549
0.3549
0.3549
0.34902
0.3451
0.33922
0.3451
0.33922
0.3451
0.36471
0.38039
0.3902
0.38039
0.37451
0.34902
0.33922
0.33922
0.3549
0.37451
0.35882
0.3549
0.33529
0.33529
0.33529
0.32941
0.34902
0.3
0.52549
1.302
1.5039
1.5039
0.71569
0.38431
0.37059
0.38431
0.37451
0.3549
0.3451
0.33922
0.3549
0.37451
0.3902
0.40392
0.4098
0.42941
0.4549
0.47451
0.49412
0.52549
0.5451
0.57059
0.6
0.6451
0.6902
0.73137
0.7549
0.78039
0.78039
0.78627
0.77059
0.73529
0.68627
0.61961
0.56078
0.49412
0.43922
0.39412
0.3549
0.33529
0.31961
0.31373
0.31373
0.32353
0.32941
0.33529
0.33529
0.33529
0.3451
0.3451
0.34902
0.3549
0.3549
0.33922
0.33529
0.33529
0.32353
0.32353
0.31961
0.31373
0.3098
0.3098
0.32941
0.33922
0.34902
0.3451
0.3451
0.31961
0.29412
0.3
0.3098
0.32353
0.31373
0.3098
0.3
0.3
0.30392
0.3098
0.32353
0.28431
0.40392
0.99608
1.5039
1.5039
0.97647
0.36471
0.3098
0.3451
0.33529
0.33529
0.33529
0.33529
0.32941
0.3451
0.3549
0.35882
0.37451
0.38431
0.39412
0.41569
0.43529
0.46078
0.4902
0.5098
0.55098
0.6
0.6451
0.70588
0.76078
0.79608
0.81176
0.81569
0.8
0.76667
0.7098
0.6451
0.57059
0.5
0.43922
0.38431
0.33922
0.31961
0.3
0.29412
0.30392
0.3098
0.3098
0.3098
0.31373
0.3098
0.32941
0.33529
0.3451
0.34902
0.3549
0.34902
0.3451
0.33922
0.33922
0.33922
0.3451
0.33922
0.33529
0.32941
0.31961
0.33529
0.3549
0.37059
0.3549
0.3549
0.32941
0.31373
0.32353
0.33529
0.34902
0.33529
0.33529
0.32941
0.33529
0.33529
0.3451
0.3451
0.28431
0.49412
1.2667
1.5039
1.5039
0.81569
0.3549
0.33529
0.3549
0.33529
0.32941
0.3098
0.3098
0.31373
0.32941
0.3451
0.35882
0.37451
0.38039
0.4
0.42549
0.44902
0.47059
0.5
0.52941
0.57451
0.62549
0.68627
0.74118
0.78627
0.82157
0.83137
0.82549
0.81176
0.77647
0.71569
0.6451
0.58039
0.5098
0.4451
0.40392
0.36471
0.3451
0.33529
0.32353
0.31961
0.33529
0.33529
0.3451
0.34902
0.34902
0.3549
0.35882
0.37059
0.37059
0.37451
0.37451
0.37451
0.37059
0.36471
0.3549
0.3549
0.34902
0.33529
0.32941
0.33529
0.34902
0.37451
0.38039
0.38431
0.38039
0.35882
0.33922
0.33922
0.3549
0.37059
0.36471
0.3549
0.35882
0.33922
0.3451
0.34902
0.3549
0.3098
0.28431
0.87647
1.5039
1.5039
1.1863
0.5
0.40392
0.39412
0.38039
0.3549
0.33922
0.3451
0.3549
0.37451
0.38431
0.38431
0.39412
0.4098
0.42549
0.4451
0.46078
0.48039
0.5
0.52941
0.56471
0.60588
0.6549
0.7
0.7451
0.77647
0.79608
0.8
0.78627
0.76078
0.7098
0.6549
0.5902
0.52941
0.47059
0.43529
0.4
0.37059
0.3549
0.3549
0.3451
0.3451
0.34902
0.3549
0.34902
0.3549
0.35882
0.36471
0.37059
0.37059
0.36471
0.35882
0.3549
0.35882
0.35882
0.35882
0.3549
0.34902
0.3451
0.33529
0.33922
0.3549
0.37451
0.38431
0.38431
0.38039
0.34902
0.33529
0.33922
0.34902
0.36471
0.36471
0.3549
0.3451
0.33922
0.3451
0.3451
0.3549
0.30392
0.43922
1.0216
1.5039
1.5039
0.98235
0.4451
0.39412
0.38431
0.37059
0.3549
0.3451
0.33922
0.3549
0.37059
0.38039
0.39412
0.40392
0.4098
0.41961
0.43922
0.46471
0.4902
0.50588
0.52941
0.56471
0.61961
0.66078
0.71569
0.75098
0.78039
0.78627
0.7902
0.78039
0.75098
0.7098
0.66078
0.60588
0.55098
0.5
0.4549
0.42549
0.40392
0.38431
0.38039
0.38039
0.38039
0.38039
0.38431
0.38039
0.38039
0.38039
0.3902
0.39412
0.3902
0.39412
0.3902
0.38431
0.38039
0.38039
0.36471
0.3549
0.34902
0.34902
0.3451
0.34902
0.37059
0.38039
0.38039
0.38039
0.36471
0.32941
0.32353
0.33529
0.34902
0.3549
0.34902
0.33922
0.33529
0.33529
0.33529
0.33529
0.31373
0.28431
0.66078
1.5039
1.5039
1.4686
0.51961
0.33529
0.35882
0.35882
0.34902
0.3549
0.33529
0.33922
0.34902
0.3549
0.36471
0.38431
0.40392
0.40392
0.4098
0.42549
0.44902
0.47451
0.50588
0.53922
0.58039
0.62941
0.68039
0.72549
0.77059
0.7902
0.79608
0.78627
0.77059
0.71569
0.65098
0.58431
0.5098
0.44902
0.39412
0.3549
0.33529
0.3098
0.29412
0.3
0.30392
0.31373
0.31961
0.32353
0.33529
0.33922
0.3549
0.3549
0.34902
0.34902
0.3549
0.3549
0.3549
0.3451
0.33529
0.32941
0.32353
0.31373
0.31373
0.32353
0.33529
0.3549
0.35882
0.3549
0.34902
0.32941
0.3098
0.31373
0.33529
0.33922
0.32941
0.33529
0.33529
0.32941
0.3451
0.3451
0.34902
0.2902
0.47059
1.2118
1.5039
1.5039
0.88627
0.39412
0.37451
0.38431
0.35882
0.3549
0.3451
0.33922
0.3549
0.3549
0.36471
0.37451
0.38039
0.3902
0.40392
0.4098
0.42549
0.4451
0.48039
0.51961
0.56471
0.61569
0.66471
0.72549
0.77647
0.8
0.81176
0.81569
0.79608
0.7451
0.68039
0.60588
0.53922
0.48039
0.41961
0.37451
0.34902
0.33529
0.31961
0.3098
0.3098
0.31961
0.33529
0.33922
0.34902
0.34902
0.3549
0.36471
0.38039
0.38039
0.38039
0.38039
0.37451
0.37059
0.37059
0.35882
0.3549
0.3549
0.34902
0.3451
0.35882
0.38039
0.39412
0.4
0.38431
0.37059
0.3451
0.33922
0.3549
0.37059
0.38039
0.37059
0.3549
0.34902
0.34902
0.34902
0.35882
0.33529
0.2902
0.67059
1.5039
1.5039
1.5039
0.60588
0.41961
0.4098
0.39412
0.38039
0.35882
0.3549
0.36471
0.38039
0.39412
0.38431
0.4
0.4098
0.41569
0.42549
0.4451
0.47059
0.5
0.51569
0.55098
0.58431
0.64118
0.6902
0.73137
0.76667
0.78039
0.7902
0.78039
0.7549
0.71569
0.66078
0.59608
0.52941
0.48039
0.42941
0.39412
0.36471
0.34902
0.33529
0.33529
0.33529
0.33529
0.33922
0.3451
0.34902
0.3451
0.34902
0.3549
0.3549
0.3549
0.3549
0.34902
0.3549
0.34902
0.34902
0.3451
0.33922
0.33922
0.33529
0.33922
0.35882
0.38039
0.38039
0.38039
0.37451
0.3451
0.33529
0.33922
0.35882
0.37059
0.35882
0.3549
0.33922
0.33922
0.3451
0.34902
0.3549
0.29412
0.52549
1.3118
1.5039
1.5039
0.72549
0.4
0.3902
0.38039
0.37451
0.3549
0.33922
0.33529
0.3549
0.37059
0.38039
0.38431
0.4
0.40392
0.41961
0.43529
0.46471
0.48431
0.50588
0.53922
0.57451
0.61961
0.66471
0.7098
0.75098
0.77647
0.7902
0.78627
0.77059
0.74118
0.68627
0.62941
0.57059
0.5098
0.4549
0.41961
0.38431
0.36471
0.3549
0.34902
0.34902
0.34902
0.3549
0.36471
0.37059
0.38039
0.38039
0.38431
0.38431
0.38431
0.38431
0.38431
0.38039
0.37451
0.37451
0.36471
0.36471
0.36471
0.36471
0.38039
0.40392
0.42549
0.42941
0.42549
0.41961
0.39412
0.37059
0.38039
0.39412
0.39412
0.38431
0.38039
0.36471
0.36471
0.35882
0.36471
0.37451
0.31961
0.51961
1.2471
1.5039
1.5039
0.82549
0.41569
0.3902
0.39412
0.37451
0.36471
0.3451
0.3549
0.3549
0.37059
0.37451
0.38431
0.39412
0.39412
0.40392
0.42549
0.4451
0.47059
0.48431
0.51569
0.56078
0.6098
0.6549
0.7
0.74118
0.76667
0.78039
0.78039
0.7549
0.72157
0.66471
0.60588
0.53922
0.47451
0.42549
0.37451
0.3549
0.32941
0.31961
0.31373
0.3098
0.31961
0.32353
0.32941
0.33529
0.33922
0.3451
0.34902
0.3549
0.36471
0.3549
0.34902
0.3451
0.33529
0.33529
0.31961
0.31373
0.31373
0.3098
0.31961
0.32941
0.33529
0.33529
0.32941
0.3098
0.29412
0.3
0.3098
0.31961
0.32941
0.31373
0.30392
0.3098
0.3098
0.31373
0.32353
0.29412
0.26863
0.85686
1.5039
1.5039
1.1922
0.43529
0.33529
0.3549
0.3451
0.33529
0.32941
0.32353
0.33529
0.33922
0.3451
0.3549
0.37059
0.37451
0.3902
0.40392
0.42549
0.44902
0.48039
0.51961
0.56471
0.6098
0.66471
0.72157
0.77059
0.80588
0.82549
0.83529
0.82157
0.78627
0.73137
0.65098
0.57059
0.49412
0.42941
0.37451
0.33922
0.31373
0.29412
0.28431
0.28431
0.28431
0.28431
0.2902
0.29412
0.3
0.3098
0.31961
0.32353
0.32941
0.33529
0.33529
0.33922
0.33922
0.3451
0.33922
0.33529
0.33529
0.33529
0.33529
0.3451
0.36471
0.37451
0.37059
0.37059
0.3451
0.31961
0.32353
0.33529
0.34902
0.3549
0.3451
0.32941
0.32941
0.32941
0.33529
0.34902
0.31373
0.28431
0.84118
1.5039
1.5039
1.2314
0.48431
0.38431
0.39412
0.37451
0.36471
0.3549
0.3549
0.3549
0.37059
0.38039
0.38431
0.4
0.4098
0.41961
0.42941
0.44902
0.47059
0.49412
0.52549
0.56078
0.6
0.65098
0.70588
0.7451
0.78627
0.80588
0.81176
0.79608
0.77059
0.71569
0.6549
0.58431
0.52941
0.47059
0.42549
0.38431
0.35882
0.3451
0.33529
0.32941
0.33529
0.33922
0.3451
0.3549
0.34902
0.36471
0.37059
0.37059
0.37451
0.37059
0.37059
0.36471
0.35882
0.35882
0.3549
0.3549
0.3549
0.34902
0.3451
0.34902
0.38039
0.3902
0.39412
0.3902
0.37451
0.3451
0.33922
0.3451
0.3549
0.35882
0.3549
0.3451
0.33529
0.33529
0.33529
0.33922
0.34902
0.2902
0.57451
1.4686
1.5039
1.5039
0.62549
0.4
0.3902
0.38039
0.36471
0.33922
0.33529
0.33529
0.3549
0.36471
0.37451
0.3902
0.4
0.40392
0.41961
0.44902
0.46078
0.48431
0.50588
0.53922
0.58431
0.62941
0.67647
0.72157
0.76078
0.78039
0.78627
0.78039
0.7549
0.72157
0.66078
0.6
0.53922
0.48039
0.43529
0.4
0.37059
0.34902
0.33922
0.33529
0.33529
0.3451
0.3451
0.34902
0.3549
0.36471
0.36471
0.37059
0.37059
0.37059
0.37451
0.37059
0.36471
0.3549
0.3549
0.3549
0.3549
0.3549
0.3549
0.35882
0.38039
0.4
0.40392
0.39412
0.38039
0.34902
0.33922
0.35882
0.38431
0.4
0.3902
0.38431
0.38039
0.38039
0.3902
0.39412
0.40392
0.34902
0.57059
1.3471
1.5039
1.5039
0.76078
0.41961
0.40392
0.39412
0.38039
0.36471
0.3549
0.3549
0.35882
0.37451
0.38431
0.39412
0.4
0.4098
0.42549
0.43922
0.4549
0.47451
0.5
0.53922
0.57451
0.62549
0.67059
0.71569
0.7549
0.78039
0.78039
0.78039
0.75098
0.72157
0.66471
0.60588
0.53922
0.48039
0.42549
0.38431
0.3549
0.33529
0.31961
0.31961
0.32353
0.33529
0.32941
0.33529
0.33529
0.33922
0.34902
0.34902
0.3451
0.3549
0.3549
0.3549
0.33922
0.33529
0.32941
0.32353
0.31961
0.3098
0.3098
0.32941
0.33922
0.3549
0.34902
0.3451
0.32941
0.30392
0.30392
0.31373
0.33529
0.32941
0.33529
0.32941
0.32353
0.32353
0.32941
0.33529
0.31373
0.28431
0.76667
1.5039
1.5039
1.3471
0.48431
0.33529
0.3549
0.3451
0.3451
0.32941
0.31373
0.32941
0.33529
0.33922
0.3549
0.35882
0.37059
0.38039
0.39412
0.4098
0.41961
0.43922
0.47451
0.51961
0.57451
0.62941
0.68039
0.73529
0.78039
0.8
0.81176
0.8
0.77647
0.72157
0.65098
0.58039
0.50588
0.43529
0.38039
0.3451
0.31961
0.30392
0.30392
0.3098
0.3098
0.3098
0.3098
0.31373
0.32941
0.33529
0.33529
0.34902
0.34902
0.3451
0.33922
0.33529
0.33529
0.32353
0.31373
0.3098
0.30392
0.29412
0.2902
0.30392
0.32941
0.33922
0.3451
0.3451
0.32941
0.3098
0.3098
0.32353
0.33922
0.3451
0.3451
0.33922
0.33529
0.33529
0.3451
0.3451
0.34902
0.2902
0.7451
1.5039
1.5039
1.3784
0.5098
0.35882
0.38039
0.37059
0.37059
0.3549
0.33922
0.34902
0.3549
0.37059
0.38431
0.39412
0.40392
0.41961
0.43529
0.4549
0.47059
0.49412
0.52941
0.56471
0.60588
0.66078
0.7098
0.7549
0.79608
0.80588
0.81569
0.80588
0.78627
0.73137
0.67059
0.6
0.52549
0.47059
0.41569
0.37451
0.33922
0.32353
0.31373
0.31373
0.31373
0.32353
0.33529
0.33922
0.3451
0.3549
0.3549
0.37059
0.36471
0.37059
0.37451
0.37451
0.38039
0.36471
0.36471
0.3549
0.3549
0.3549
0.34902
0.3451
0.38039
0.3902
0.4
0.38431
0.38039
0.34902
0.33529
0.3549
0.37059
0.37451
0.36471
0.3549
0.33529
0.33922
0.33922
0.34902
0.3549
0.27843
0.52941
1.3216
1.5039
1.5039
0.7451
0.42549
0.40392
0.38039
0.37059
0.33922
0.33529
0.33529
0.3549
0.36471
0.37451
0.38431
0.4
0.40392
0.41569
0.42941
0.44902
0.47451
0.5
0.52549
0.56471
0.61569
0.66471
0.71569
0.7549
0.78039
0.78627
0.79608
0.76078
0.72157
0.67059
0.60588
0.55098
0.49412
0.44902
0.4098
0.37451
0.3549
0.33922
0.33529
0.33529
0.33529
0.33529
0.34902
0.34902
0.3549
0.35882
0.35882
0.36471
0.35882
0.3549
0.3549
0.35882
0.3549
0.34902
0.34902
0.34902
0.33922
0.33529
0.33922
0.35882
0.38039
0.38431
0.38039
0.37059
0.34902
0.33529
0.33922
0.34902
0.35882
0.3549
0.3451
0.33529
0.33529
0.33529
0.33529
0.3451
0.2902
0.44902
1.102
1.5039
1.5039
0.86667
0.41569
0.3902
0.38431
0.37059
0.34902
0.33529
0.33529
0.34902
0.35882
0.36471
0.38431
0.40392
0.41961
0.43922
0.4549
0.48431
0.51569
0.53529
0.56471
0.59608
0.6451
0.69608
0.73137
0.77647
0.79608
0.8
0.8
0.78627
0.75098
0.7098
0.6451
0.58039
0.51961
0.46078
0.41961
0.3902
0.36471
0.3549
0.3451
0.34902
0.33922
0.3549
0.3549
0.3549
0.36471
0.37059
0.37451
0.37451
0.37059
0.37451
0.37451
0.36471
0.37059
0.3549
0.34902
0.3451
0.33529
0.32941
0.33529
0.3451
0.3549
0.35882
0.3549
0.3549
0.33529
0.31373
0.32353
0.33529
0.3451
0.33922
0.33529
0.32353
0.32353
0.31961
0.33529
0.33922
0.28431
0.3549
0.83529
1.5039
1.5039
1.1863
0.42941
0.33922
0.37059
0.35882
0.34902
0.33922
0.33529
0.34902
0.3549
0.35882
0.37451
0.38431
0.39412
0.39412
0.4098
0.42941
0.4549
0.47059
0.49412
0.53922
0.58431
0.64118
0.69608
0.73529
0.78039
0.8
0.8
0.78627
0.7549
0.7098
0.64118
0.57451
0.5
0.43529
0.37451
0.3451
0.31961
0.3
0.2902
0.2902
0.3
0.29412
0.31373
0.3098
0.31961
0.33529
0.33529
0.33529
0.33922
0.33529
0.33529
0.32353
0.33529
0.32941
0.32353
0.32941
0.32353
0.32353
0.32353
0.33922
0.3549
0.35882
0.3549
0.36471
0.33922
0.31961
0.32353
0.33529
0.33922
0.33529
0.33529
0.32353
0.3098
0.3098
0.31373
0.33529
0.29412
0.27843
0.91569
1.5039
1.5039
1.1627
0.42549
0.3451
0.36471
0.3451
0.33529
0.32353
0.32353
0.32941
0.33529
0.33529
0.34902
0.34902
0.3549
0.36471
0.38039
0.4
0.41961
0.4451
0.48431
0.52941
0.58431
0.6451
0.70588
0.76667
0.8
0.82157
0.83137
0.82157
0.78627
0.72549
0.66078
0.58431
0.5098
0.4549
0.4
0.36471
0.33529
0.31961
0.3098
0.3098
0.31373
0.32353
0.33529
0.33529
0.3451
0.3549
0.3549
0.35882
0.37059
0.36471
0.37451
0.38039
0.36471
0.36471
0.3549
0.3549
0.3549
0.3451
0.34902
0.3549
0.37059
0.38039
0.3902
0.38039
0.37451
0.3451
0.33529
0.33922
0.34902
0.35882
0.3549
0.34902
0.33529
0.33922
0.33922
0.3451
0.34902
0.27843
0.43529
1.0608
1.5039
1.5039
0.96078
0.4549
0.4098
0.4
0.38039
0.3549
0.33529
0.3451
0.35882
0.37451
0.38039
0.3902
0.39412
0.4
0.40392
0.42549
0.43922
0.46078
0.48431
0.51569
0.5549
0.60588
0.6549
0.70588
0.7451
0.77647
0.7902
0.78627
0.77647
0.73529
0.6902
0.63529
0.58039
0.51961
0.46078
0.41961
0.3902
0.37059
0.3549
0.3451
0.3549
0.3549
0.3549
0.3549
0.3549
0.35882
0.35882
0.36471
0.37451
0.37451
0.37059
0.37059
0.36471
0.37059
0.37059
0.36471
0.3549
0.3549
0.3549
0.3549
0.35882
0.38039
0.39412
0.4
0.38431
0.37059
0.33529
0.33529
0.3451
0.35882
0.36471
0.3549
0.3451
0.33529
0.33529
0.33922
0.34902
0.33922
0.29412
0.5902
1.4824
1.5039
1.5039
0.61569
0.3902
0.3902
0.37451
0.3549
0.33529
0.31961
0.32941
0.3451
0.3549
0.35882
0.38039
0.39412
0.40392
0.41961
0.43529
0.4549
0.47451
0.5
0.53529
0.57451
0.61961
0.67059
0.71569
0.7549
0.78039
0.78627
0.77647
0.7549
0.73529
0.6902
0.62941
0.57451
0.52549
0.47059
0.42941
0.40392
0.39412
0.38039
0.37451
0.38039
0.38039
0.38039
0.38039
0.38039
0.38431
0.38039
0.38431
0.38431
0.38431
0.38039
0.38039
0.38039
0.38039
0.37451
0.36471
0.3549
0.3549
0.34902
0.34902
0.37059
0.37451
0.38039
0.38039
0.37451
0.34902
0.33529
0.33529
0.3451
0.3549
0.3549
0.34902
0.33529
0.32941
0.33529
0.33529
0.3451
0.31961
0.29412
0.87059
1.5039
1.5039
1.1627
0.42549
0.3451
0.36471
0.34902
0.3451
0.32941
0.31961
0.33529
0.3451
0.3549
0.35882
0.38039
0.38039
0.39412
0.4098
0.42549
0.4451
0.47451
0.50588
0.53529
0.58039
0.62941
0.68627
0.73137
0.7549
0.78039
0.7902
0.77647
0.7451
0.70588
0.64118
0.56471
0.49412
0.43922
0.38431
0.3549
0.32941
0.3098
0.30392
0.3098
0.30392
0.3098
0.3098
0.32353
0.3451
0.3451
0.3451
0.3549
0.3451
0.34902
0.34902
0.33922
0.3451
0.33529
0.32941
0.32941
0.31961
0.31373
0.31961
0.33922
0.34902
0.3549
0.3451
0.34902
0.32353
0.3098
0.31961
0.32353
0.33922
0.33529
0.32941
0.31373
0.32353
0.32941
0.33529
0.3451
0.3
0.2902
0.93725
1.5039
1.5039
1.1569
0.42941
0.34902
0.38039
0.3549
0.3451
0.33922
0.33529
0.33922
0.34902
0.3549
0.36471
0.38039
0.38431
0.4
0.40392
0.42549
0.44902
0.48431
0.51961
0.57059
0.61569
0.66471
0.72549
0.77647
0.8
0.82157
0.80588
0.7902
0.7451
0.68627
0.60588
0.52941
0.46471
0.39412
0.3549
0.32941
0.3098
0.3098
0.3
0.3
0.3098
0.32353
0.33529
0.33922
0.3451
0.3451
0.3549
0.3549
0.35882
0.37451
0.37451
0.37451
0.37059
0.36471
0.36471
0.3549
0.34902
0.3549
0.34902
0.3549
0.37451
0.38431
0.3902
0.38431
0.37451
0.3451
0.33529
0.33922
0.3549
0.3549
0.3549
0.3549
0.33529
0.33922
0.3451
0.34902
0.3549
0.28431
0.51961
1.3784
1.5039
1.5039
0.72549
0.41961
0.4098
0.3902
0.36471
0.3549
0.34902
0.3549
0.36471
0.37451
0.37451
0.3902
0.4
0.4098
0.42549
0.4451
0.46471
0.4902
0.51961
0.55098
0.58431
0.62549
0.68039
0.72549
0.76078
0.78039
0.79608
0.78627
0.76667
0.72549
0.67647
0.6098
0.55098
0.5
0.44902
0.4098
0.37451
0.3549
0.34902
0.3451
0.33922
0.3451
0.33922
0.34902
0.3549
0.3549
0.36471
0.37059
0.38039
0.38039
0.37451
0.37059
0.36471
0.35882
0.35882
0.3549
0.3549
0.34902
0.33922
0.34902
0.35882
0.38039
0.38431
0.38039
0.37451
0.34902
0.33529
0.33922
0.34902
0.37059
0.36471
0.35882
0.3451
0.33529
0.33529
0.3451
0.3549
0.29412
0.2902
0.96078
1.5039
1.5039
1.0118
0.44902
0.40392
0.39412
0.37451
0.3549
0.33922
0.33922
0.3549
0.3549
0.37451
0.39412
0.40392
0.4098
0.42549
0.43922
0.44902
0.47059
0.49412
0.51961
0.55098
0.5902
0.6451
0.6902
0.73137
0.76667
0.78039
0.78627
0.77059
0.75098
0.70588
0.65098
0.59608
0.53922
0.49412
0.4549
0.42549
0.40392
0.39412
0.38039
0.38039
0.3902
0.4
0.4
0.4
0.40392
0.4
0.40392
0.4098
0.40392
0.40392
0.40392
0.4
0.40392
0.4
0.38431
0.38039
0.38039
0.37451
0.37059
0.38039
0.39412
0.40392
0.4098
0.4
0.37451
0.3549
0.3549
0.36471
0.38039
0.37451
0.36471
0.3549
0.34902
0.34902
0.3549
0.34902
0.32353
0.3
0.76667
1.5039
1.5039
1.3471
0.4902
0.3549
0.37451
0.3549
0.33922
0.32353
0.32941
0.33529
0.34902
0.3549
0.35882
0.38039
0.38039
0.39412
0.4098
0.42549
0.44902
0.47059
0.49412
0.53529
0.58431
0.63529
0.6902
0.73529
0.77059
0.7902
0.78627
0.7902
0.7549
0.71569
0.65098
0.58039
0.51569
0.44902
0.4
0.35882
0.33529
0.31961
0.3098
0.31373
0.3098
0.31373
0.31373
0.32941
0.33922
0.3549
0.34902
0.34902
0.3549
0.3451
0.3549
0.3549
0.34902
0.34902
0.3451
0.33529
0.33529
0.32353
0.31961
0.33529
0.3549
0.35882
0.3549
0.3549
0.32941
0.31373
0.31961
0.32941
0.33529
0.32941
0.32353
0.33922
0.33529
0.32941
0.33529
0.3451
0.31373
0.41961
0.98627
1.5039
1.5039
1.1412
0.43529
0.36471
0.38431
0.3549
0.3549
0.33922
0.33529
0.3451
0.3549
0.35882
0.37059
0.37451
0.38039
0.3902
0.40392
0.41569
0.43529
0.47059
0.5
0.5451
0.59608
0.65098
0.71569
0.77059
0.8
0.83137
0.83529
0.82549
0.78627
0.73529
0.67059
0.5902
0.51569
0.4549
0.4098
0.37451
0.3549
0.33529
0.32941
0.33529
0.33529
0.3451
0.3451
0.34902
0.3549
0.3549
0.36471
0.37059
0.38039
0.37451
0.37451
0.37451
0.38039
0.37451
0.37059
0.35882
0.35882
0.3549
0.3549
0.35882
0.38039
0.39412
0.3902
0.38039
0.38039
0.34902
0.3451
0.3549
0.37451
0.38039
0.38039
0.37059
0.35882
0.35882
0.35882
0.35882
0.37059
0.2902
0.6098
1.5039
1.5039
1.5039
0.62549
0.41961
0.40392
0.38039
0.36471
0.34902
0.33529
0.3549
0.37059
0.37451
0.38039
0.39412
0.39412
0.4
0.42549
0.43922
0.46471
0.48431
0.51569
0.55098
0.58431
0.63529
0.68039
0.73137
0.77647
0.79608
0.8
0.7902
0.76667
0.72157
0.67059
0.6098
0.53922
0.4902
0.43529
0.40392
0.37451
0.35882
0.34902
0.3451
0.33529
0.33922
0.34902
0.3549
0.3549
0.3549
0.3549
0.35882
0.35882
0.36471
0.3549
0.37059
0.36471
0.36471
0.3549
0.35882
0.3549
0.34902
0.3451
0.3549
0.38039
0.4
0.39412
0.38039
0.37059
0.3549
0.33922
0.34902
0.37059
0.37451
0.36471
0.3549
0.3451
0.33529
0.33922
0.33529
0.3451
0.28431
0.5451
1.3882
1.5039
1.5039
0.68039
0.40392
0.4
0.38039
0.3549
0.34902
0.33529
0.33922
0.3549
0.37059
0.38039
0.39412
0.40392
0.40392
0.41961
0.43922
0.4549
0.48039
0.50588
0.53529
0.56471
0.61961
0.68039
0.73529
0.77647
0.8
0.81569
0.82157
0.8
0.76078
0.7098
0.6549
0.5902
0.53922
0.48039
0.42941
0.39412
0.37451
0.3549
0.3549
0.3549
0.35882
0.37059
0.37059
0.37059
0.37451
0.37451
0.3902
0.3902
0.38431
0.3902
0.38039
0.38431
0.38431
0.38039
0.37451
0.37059
0.36471
0.35882
0.37059
0.3902
0.39412
0.38039
0.38039
0.35882
0.32941
0.33529
0.33922
0.35882
0.3549
0.3451
0.33529
0.31961
0.33529
0.33529
0.33529
0.3098
0.27843
0.6549
1.5039
1.5039
1.498
0.53922
0.33922
0.37059
0.34902
0.33922
0.32941
0.32353
0.32941
0.33529
0.33922
0.3549
0.35882
0.37059
0.38039
0.39412
0.41569
0.42941
0.44902
0.48039
0.5098
0.56078
0.6098
0.67059
0.71569
0.7549
0.7902
0.7902
0.78039
0.7549
0.7
0.64118
0.57059
0.49412
0.43529
0.38431
0.34902
0.32941
0.29412
0.28431
0.28431
0.29412
0.2902
0.2902
0.30392
0.3098
0.31961
0.32353
0.33529
0.32941
0.33529
0.32941
0.32941
0.32941
0.32353
0.32941
0.31961
0.3098
0.30392
0.3098
0.32941
0.3451
0.3549
0.34902
0.33922
0.3098
0.3
0.3098
0.32941
0.33529
0.33922
0.32941
0.31373
0.32353
0.31961
0.31961
0.33529
0.27843
0.46471
1.2275
1.5039
1.5039
0.87647
0.35882
0.33529
0.3549
0.32353
0.3098
0.29412
0.28431
0.28431
0.3
0.31961
0.33922
0.3549
0.3549
0.38039
0.4098
0.43529
0.46078
0.4902
0.52549
0.57451
0.61961
0.67647
0.7451
0.8
0.83137
0.8451
0.84118
0.82549
0.78039
0.72157
0.6451
0.56471
0.49412
0.43922
0.39412
0.35882
0.33529
0.31373
0.3098
0.31961
0.32941
0.32353
0.32941
0.33529
0.3451
0.34902
0.3549
0.3549
0.35882
0.3549
0.3549
0.3549
0.3549
0.3549
0.34902
0.3451
0.33922
0.3451
0.33922
0.34902
0.37059
0.38039
0.38039
0.37059
0.3451
0.32353
0.32941
0.33529
0.34902
0.34902
0.3549
0.33922
0.33529
0.33529
0.33529
0.33922
0.28431
0.27451
0.91176
1.5039
1.5039
1.1314
0.47451
0.41569
0.4
0.37059
0.34902
0.32941
0.32353
0.33922
0.3549
0.35882
0.37451
0.38039
0.3902
0.40392
0.42549
0.43529
0.46078
0.48431
0.51569
0.5549
0.6
0.65098
0.69608
0.73529
0.77647
0.7902
0.78039
0.77647
0.7451
0.6902
0.62941
0.57059
0.5098
0.46078
0.41961
0.3902
0.36471
0.35882
0.34902
0.34902
0.3549
0.3549
0.3549
0.35882
0.35882
0.36471
0.37059
0.37451
0.37059
0.37451
0.38039
0.37059
0.37451
0.37059
0.35882
0.3549
0.3549
0.34902
0.3549
0.37059
0.39412
0.39412
0.39412
0.38039
0.3549
0.33922
0.34902
0.3549
0.37059
0.35882
0.3549
0.3451
0.33922
0.33922
0.34902
0.3549
0.28431
0.4549
1.1216
1.5039
1.5039
0.86078
0.42941
0.40392
0.38431
0.35882
0.34902
0.32941
0.33529
0.34902
0.3549
0.37059
0.38431
0.39412
0.39412
0.41569
0.42941
0.44902
0.47451
0.50588
0.53922
0.58431
0.62941
0.68627
0.73137
0.77059
0.8
0.81176
0.81569
0.79608
0.76078
0.7098
0.65098
0.58039
0.52549
0.47451
0.42549
0.3902
0.37059
0.3549
0.3549
0.3549
0.3549
0.35882
0.37451
0.37451
0.37451
0.38039
0.38431
0.3902
0.39412
0.38039
0.38039
0.38039
0.37059
0.37059
0.36471
0.3549
0.34902
0.3549
0.36471
0.37451
0.38039
0.37451
0.36471
0.34902
0.31961
0.32941
0.33922
0.35882
0.3549
0.33922
0.33529
0.32941
0.31961
0.32941
0.3451
0.30392
0.2902
0.8902
1.5039
1.5039
1.1471
0.4098
0.33922
0.3549
0.33922
0.33529
0.31961
0.31961
0.32353
0.33529
0.3451
0.3549
0.36471
0.37059
0.38039
0.40392
0.4098
0.42549
0.47059
0.4902
0.53922
0.59608
0.64118
0.69608
0.7451
0.77647
0.7902
0.8
0.77647
0.73529
0.68039
0.6098
0.5451
0.46471
0.4
0.3549
0.32941
0.3
0.28431
0.28431
0.27451
0.27843
0.2902
0.27843
0.29412
0.31373
0.31961
0.31961
0.33529
0.33529
0.33529
0.33922
0.3451
0.33529
0.33529
0.33529
0.32941
0.32353
0.31961
0.33922
0.34902
0.3549
0.3549
0.3549
0.33529
0.32353
0.32941
0.33529
0.33529
0.32941
0.32941
0.3098
0.29412
0.3
0.3098
0.3098
0.25882
0.3902
1.051
1.5039
1.5039
0.97647
0.35882
0.3098
0.3451
0.34902
0.34902
0.33922
0.33529
0.33529
0.33922
0.36471
0.3902
0.40392
0.4098
0.42549
0.43922
0.46078
0.48039
0.5
0.52549
0.56471
0.62549
0.68039
0.74118
0.78627
0.82549
0.84118
0.8451
0.82549
0.78627
0.72157
0.6549
0.58039
0.51569
0.4549
0.40392
0.36471
0.33922
0.32941
0.31961
0.31373
0.31961
0.32941
0.33529
0.3451
0.3549
0.3549
0.35882
0.36471
0.35882
0.36471
0.36471
0.35882
0.36471
0.3549
0.34902
0.3451
0.3451
0.33922
0.3451
0.36471
0.37451
0.38039
0.37451
0.38039
0.33529
0.33529
0.33529
0.34902
0.36471
0.35882
0.3549
0.33922
0.33529
0.33922
0.33922
0.3451
0.27451
0.52549
1.3569
1.5039
1.5039
0.73529
0.42941
0.4098
0.3902
0.36471
0.34902
0.3451
0.3451
0.3549
0.36471
0.38039
0.38431
0.39412
0.4
0.42549
0.43922
0.4549
0.48039
0.5098
0.53922
0.57451
0.61961
0.67647
0.72157
0.7549
0.78039
0.7902
0.78039
0.7549
0.72549
0.66471
0.6098
0.55098
0.4902
0.43922
0.4098
0.38039
0.35882
0.3549
0.34902
0.34902
0.34902
0.34902
0.3549
0.3549
0.35882
0.36471
0.37059
0.38039
0.38039
0.38039
0.37451
0.38039
0.37451
0.37059
0.35882
0.3549
0.3549
0.3549
0.37451
0.39412
0.39412
0.38039
0.37451
0.3451
0.33529
0.3451
0.3549
0.35882
0.3549
0.3549
0.33529
0.33529
0.33922
0.3451
0.34902
0.27451
0.47059
1.2216
1.5039
1.5039
0.78039
0.42549
0.40392
0.39412
0.37059
0.3549
0.3451
0.34902
0.37059
0.38039
0.3902
0.41961
0.43529
0.44902
0.46078
0.47451
0.50588
0.51961
0.5451
0.57059
0.6098
0.65098
0.7
0.74118
0.77647
0.79608
0.80588
0.8
0.78039
0.7451
0.6902
0.62549
0.56078
0.50588
0.4451
0.40392
0.37059
0.35882
0.34902
0.3451
0.3549
0.3549
0.36471
0.37059
0.37059
0.37451
0.38039
0.38039
0.38039
0.38039
0.38039
0.37451
0.38039
0.37059
0.35882
0.3549
0.34902
0.34902
0.34902
0.35882
0.37451
0.38039
0.36471
0.3549
0.33922
0.31373
0.33529
0.3451
0.3549
0.33922
0.33922
0.32353
0.31961
0.31373
0.33529
0.33922
0.27843
0.46078
1.1725
1.5039
1.5039
0.83137
0.3549
0.33529
0.3549
0.32941
0.31373
0.3098
0.3098
0.32353
0.33529
0.33529
0.3549
0.36471
0.38039
0.38431
0.40392
0.41569
0.42549
0.4549
0.50588
0.55098
0.5902
0.65098
0.70588
0.75098
0.78039
0.79608
0.78627
0.77647
0.73529
0.67647
0.60588
0.52941
0.44902
0.4
0.3549
0.32941
0.3098
0.2902
0.29412
0.29412
0.29412
0.30392
0.3098
0.31373
0.3098
0.32353
0.32941
0.33529
0.33529
0.33529
0.33529
0.3451
0.33529
0.33922
0.32941
0.33529
0.32941
0.32941
0.33529
0.34902
0.3549
0.3549
0.34902
0.33922
0.3098
0.3098
0.31373
0.31961
0.3098
0.30392
0.3
0.2902
0.28431
0.28431
0.29412
0.30392
0.24902
0.69608
1.5039
1.5039
1.4275
0.5098
0.3451
0.36471
0.37059
0.35882
0.34902
0.33529
0.33529
0.34902
0.37451
0.3902
0.40392
0.40392
0.41961
0.43922
0.46078
0.47451
0.49412
0.51569
0.5549
0.6
0.65098
0.71569
0.76078
0.79608
0.82549
0.8451
0.82549
0.79608
0.74118
0.66471
0.59608
0.52549
0.46471
0.41961
0.37451
0.3549
0.33922
0.32941
0.32353
0.32941
0.32941
0.33529
0.33529
0.33922
0.34902
0.3549
0.35882
0.35882
0.36471
0.37059
0.38039
0.38039
0.37059
0.37059
0.35882
0.35882
0.3549
0.3549
0.35882
0.38431
0.4
0.40392
0.38431
0.37451
0.33922
0.33529
0.3451
0.35882
0.37059
0.36471
0.3549
0.33529
0.33529
0.33529
0.33922
0.34902
0.27843
0.59608
1.5039
1.5039
1.5039
0.64118
0.42549
0.41569
0.38039
0.35882
0.33529
0.33529
0.33529
0.3451
0.3549
0.37451
0.37059
0.38431
0.40392
0.4098
0.42941
0.4451
0.47059
0.4902
0.51961
0.57059
0.61569
0.6549
0.70588
0.75098
0.77647
0.78039
0.77647
0.75098
0.7
0.65098
0.59608
0.52941
0.47451
0.42549
0.3902
0.35882
0.33922
0.33529
0.33529
0.33529
0.33922
0.33529
0.34902
0.3549
0.3549
0.3549
0.3549
0.3549
0.3549
0.3549
0.34902
0.33922
0.3451
0.3549
0.35882
0.37059
0.36471
0.35882
0.37451
0.3902
0.38431
0.37059
0.35882
0.30392
0.4902
1.1569
1.5039
1.5039
0.85098
0.48431
0.44902
0.41961
0.39412
0.38039
0.3451
0.33529
0.3451
0.3549
0.36471
0.37451
0.37451
0.38039
0.4
0.41961
0.43529
0.44902
0.48039
0.50588
0.53529
0.58431
0.61961
0.6549
0.67059
0.68627
0.6902
0.69608
0.67647
0.63529
0.58431
0.52549
0.47059
0.41961
0.37451
0.34902
0.32353
0.31373
0.3098
0.3098
0.3098
0.3098
0.31373
0.3098
0.3098
0.3098
0.3098
0.3098
0.31961
0.31373
0.3549
0.38039
0.38431
0.38039
0.37451
0.3549
0.33529
0.3
0.26863
0.26471
0.27451
0.26471
0.28431
0.21961
0.48431
1.298
1.5039
1.5039
0.67647
0.3
0.28431
0.27843
0.2549
0.22941
0.22353
0.23333
0.2549
0.24902
0.27451
0.28431
0.30392
0.31961
0.33922
0.34902
0.36471
0.40392
0.42549
0.46078
0.5098
0.56471
0.61961
0.67059
0.70588
0.71569
0.73137
0.72157
0.69608
0.6451
0.58039
0.5098
0.44902
0.39412
0.34902
0.31961
0.3
0.28431
0.28431
0.2902
0.29412
0.2902
0.30392
0.3
0.31961
0.32353
0.33529
0.32941
0.33529
0.32941
0.33529
0.32941
0.33529
0.32353
0.31961
0.31373
0.31373
0.3098
0.3098
0.3098
0.30392
0.3098
0.28431
0.27843
0.27451
0.27451
0.27451
0.27843
0.28431
0.28431
0.29412
0.29412
0.3
0.3098
0.31961
0.31961
0.33529
0.33922
0.34902
0.37451
0.4
0.40392
0.4098
0.4098
0.3902
0.38039
0.3902
0.40392
0.41569
0.4
0.4098
0.40392
0.4
0.40392
0.4098
0.38431
0.33922
0.73137
1.5039
1.5039
1.5039
0.61961
0.4451
0.44902
0.42549
0.40392
0.39412
0.39412
0.4
0.4
0.40392
0.41569
0.42549
0.43529
0.44902
0.46471
0.47451
0.4902
0.5098
0.52941
0.56078
0.60588
0.65098
0.70588
0.76078
0.79608
0.82157
0.84118
0.83529
0.82157
0.79608
0.76078
0.70588
0.65098
0.58039
0.52941
0.48431
0.44902
0.42549
0.40392
0.3902
0.3902
0.38431
0.3902
0.39412
0.4
0.40392
0.4098
0.41569
0.41961
0.4098
0.42549
0.42549
0.41569
0.4098
0.40392
0.39412
0.38431
0.38039
0.37451
0.37451
0.38431
0.40392
0.40392
0.40392
0.3902
0.36471
0.34902
0.3549
0.3549
0.37059
0.36471
0.35882
0.34902
0.33922
0.33529
0.34902
0.3549
0.27843
0.43529
1.1216
1.5039
1.5039
0.90196
0.43922
0.40392
0.38431
0.37059
0.34902
0.32941
0.33529
0.3451
0.3549
0.37451
0.38039
0.38431
0.39412
0.40392
0.41569
0.43922
0.46471
0.49412
0.51569
0.5549
0.59608
0.65098
0.6902
0.73137
0.7549
0.76078
0.76078
0.74118
0.70588
0.66078
0.60588
0.55098
0.4902
0.44902
0.41961
0.38431
0.36471
0.34902
0.33922
0.33922
0.34902
0.3451
0.3549
0.3549
0.3549
0.3549
0.35882
0.35882
0.36471
0.35882
0.36471
0.36471
0.3549
0.35882
0.35882
0.3549
0.3549
0.34902
0.36471
0.38431
0.39412
0.4
0.38431
0.37059
0.3451
0.33922
0.3549
0.38039
0.37451
0.38039
0.36471
0.35882
0.37059
0.38431
0.4
0.37059
0.33922
0.81569
1.5039
1.5039
1.3275
0.52941
0.42549
0.42549
0.40392
0.39412
0.35882
0.35882
0.36471
0.38431
0.3902
0.4
0.40392
0.41569
0.42549
0.42941
0.4549
0.46471
0.48431
0.50588
0.53529
0.57059
0.6098
0.6549
0.7
0.73137
0.75098
0.75098
0.73529
0.72549
0.68039
0.62549
0.57059
0.5
0.43922
0.39412
0.3549
0.3451
0.31961
0.31373
0.31373
0.31373
0.31373
0.32941
0.32353
0.3451
0.33922
0.34902
0.3549
0.3549
0.34902
0.34902
0.3549
0.3549
0.3451
0.33529
0.33529
0.33529
0.32941
0.33922
0.3549
0.35882
0.35882
0.34902
0.33529
0.3098
0.30392
0.31961
0.33529
0.33922
0.32353
0.32353
0.32941
0.31961
0.32353
0.32941
0.31373
0.28431
0.71569
1.5039
1.5039
1.4529
0.5098
0.32941
0.3549
0.33922
0.33529
0.32941
0.33529
0.32353
0.33922
0.33529
0.3549
0.36471
0.37451
0.38431
0.39412
0.4098
0.41961
0.4549
0.49412
0.53529
0.58039
0.64118
0.68627
0.73529
0.78627
0.8
0.80588
0.8
0.77059
0.71569
0.6451
0.56471
0.49412
0.43529
0.38431
0.3451
0.31373
0.29412
0.2902
0.28431
0.28431
0.27843
0.27451
0.28431
0.29412
0.30392
0.3098
0.31961
0.31373
0.31961
0.31373
0.31961
0.32353
0.32941
0.32353
0.31373
0.3098
0.3098
0.31373
0.33529
0.36471
0.38039
0.38039
0.38039
0.35882
0.3451
0.33922
0.3549
0.35882
0.36471
0.35882
0.3549
0.33922
0.34902
0.3549
0.35882
0.31961
0.29412
0.86078
1.5039
1.5039
1.2725
0.4902
0.40392
0.41569
0.4
0.38039
0.35882
0.35882
0.36471
0.38039
0.39412
0.40392
0.4098
0.42549
0.43529
0.44902
0.46078
0.47451
0.5
0.52549
0.5549
0.59608
0.6451
0.7
0.75098
0.78627
0.81176
0.81569
0.8
0.77647
0.72157
0.66471
0.60588
0.52941
0.47451
0.42941
0.39412
0.37059
0.3549
0.33922
0.33529
0.33529
0.33529
0.34902
0.34902
0.3549
0.36471
0.36471
0.37451
0.37059
0.35882
0.35882
0.36471
0.36471
0.35882
0.35882
0.34902
0.34902
0.3451
0.34902
0.3549
0.37451
0.38431
0.3902
0.38039
0.36471
0.33529
0.33529
0.34902
0.36471
0.35882
0.3549
0.34902
0.33529
0.33529
0.3549
0.34902
0.31961
0.27843
0.68039
1.5039
1.5039
1.402
0.55098
0.4098
0.41569
0.38039
0.3549
0.33529
0.33529
0.3451
0.3549
0.36471
0.38431
0.39412
0.40392
0.40392
0.42549
0.44902
0.44902
0.47059
0.49412
0.52549
0.56471
0.61569
0.66471
0.7098
0.74118
0.76078
0.77059
0.76078
0.74118
0.69608
0.65098
0.58431
0.52549
0.47451
0.43529
0.40392
0.38039
0.37059
0.35882
0.3549
0.3549
0.3549
0.36471
0.36471
0.36471
0.36471
0.37451
0.37451
0.37451
0.38039
0.38039
0.38431
0.38039
0.37451
0.37059
0.36471
0.3549
0.3549
0.35882
0.38039
0.4
0.40392
0.4
0.3902
0.37059
0.3451
0.34902
0.3549
0.37451
0.38039
0.38039
0.37059
0.36471
0.37451
0.38039
0.39412
0.3549
0.33922
0.93137
1.5039
1.5039
1.1627
0.50588
0.42549
0.41569
0.4
0.38039
0.3549
0.3549
0.35882
0.37451
0.38039
0.38039
0.39412
0.40392
0.41569
0.41961
0.43922
0.4549
0.47451
0.49412
0.53529
0.57451
0.61569
0.66078
0.7
0.73137
0.75098
0.7549
0.73137
0.7098
0.67059
0.62549
0.5451
0.4902
0.42941
0.3902
0.35882
0.33529
0.31961
0.31373
0.31373
0.32941
0.33529
0.32941
0.33922
0.3451
0.33922
0.34902
0.3549
0.34902
0.3549
0.3549
0.3549
0.3451
0.33529
0.33529
0.32941
0.33529
0.32353
0.3451
0.3549
0.35882
0.3549
0.34902
0.32941
0.3098
0.3098
0.31373
0.33922
0.32941
0.31961
0.3098
0.3098
0.30392
0.31961
0.33529
0.29412
0.28431
0.94118
1.5039
1.5039
1.0667
0.3902
0.32941
0.33529
0.32353
0.31961
0.30392
0.30392
0.3098
0.32353
0.33529
0.34902
0.3549
0.3549
0.38039
0.4
0.4098
0.42941
0.46078
0.49412
0.53922
0.58431
0.6451
0.69608
0.75098
0.78039
0.8
0.79608
0.8
0.75098
0.69608
0.62549
0.5549
0.4902
0.42941
0.3902
0.35882
0.32353
0.31373
0.31961
0.3098
0.3098
0.31373
0.31373
0.31961
0.33529
0.33529
0.3451
0.3549
0.36471
0.36471
0.3549
0.34902
0.3451
0.33529
0.31373
0.3098
0.3
0.29412
0.30392
0.32353
0.33529
0.32941
0.32353
0.31373
0.30392
0.3
0.32353
0.33529
0.34902
0.34902
0.3549
0.3451
0.3451
0.33922
0.3549
0.32941
0.29412
0.73137
1.5039
1.5039
1.4725
0.5451
0.38431
0.4
0.38431
0.37059
0.3549
0.3549
0.3549
0.35882
0.37059
0.38039
0.3902
0.4
0.41569
0.43529
0.4549
0.48039
0.5
0.52549
0.56078
0.60588
0.6549
0.71569
0.76078
0.79608
0.82157
0.82157
0.81176
0.78627
0.73529
0.67647
0.6098
0.5451
0.4902
0.43922
0.4
0.38039
0.3549
0.34902
0.3549
0.3451
0.3549
0.3549
0.36471
0.37451
0.38039
0.38039
0.38039
0.38039
0.38431
0.38039
0.38039
0.37451
0.38039
0.37451
0.37451
0.36471
0.35882
0.3549
0.38039
0.40392
0.4098
0.41569
0.39412
0.37451
0.34902
0.3549
0.36471
0.38039
0.38039
0.36471
0.3549
0.34902
0.3451
0.34902
0.3549
0.31373
0.28431
0.81176
1.5039
1.5039
1.2627
0.51569
0.41961
0.40392
0.37451
0.35882
0.33922
0.3451
0.3549
0.3549
0.37451
0.39412
0.39412
0.40392
0.40392
0.42941
0.4451
0.46471
0.48039
0.51569
0.53922
0.58039
0.62549
0.67059
0.72157
0.75098
0.76667
0.77647
0.7549
0.73137
0.68627
0.63529
0.58431
0.52549
0.48039
0.4451
0.40392
0.38039
0.36471
0.3549
0.35882
0.3549
0.3549
0.3549
0.36471
0.35882
0.37059
0.37451
0.38039
0.38431
0.38431
0.38431
0.38039
0.38039
0.38039
0.37451
0.37059
0.36471
0.3549
0.35882
0.3902
0.39412
0.40392
0.40392
0.4
0.37059
0.3549
0.36471
0.38039
0.3902
0.38039
0.38039
0.3549
0.3549
0.34902
0.35882
0.3549
0.29412
0.47451
1.1667
1.5039
1.5039
0.83137
0.43529
0.4098
0.41961
0.39412
0.38039
0.35882
0.37059
0.4
0.41569
0.41569
0.43529
0.4549
0.46471
0.47059
0.48431
0.5
0.5098
0.52549
0.5451
0.58039
0.61961
0.66471
0.70588
0.7451
0.76078
0.78039
0.78039
0.76078
0.72549
0.68039
0.62549
0.56471
0.5
0.44902
0.4
0.37059
0.3451
0.33529
0.33529
0.33529
0.33922
0.3451
0.3451
0.3549
0.3549
0.35882
0.36471
0.36471
0.35882
0.36471
0.35882
0.3549
0.34902
0.33922
0.32941
0.32353
0.32353
0.33529
0.3451
0.3549
0.35882
0.3549
0.3549
0.31961
0.31373
0.32941
0.33529
0.3451
0.33529
0.33529
0.31961
0.32941
0.32353
0.32941
0.33529
0.27843
0.43922
1.1216
1.5039
1.5039
0.87647
0.35882
0.33529
0.3549
0.33922
0.33529
0.33529
0.32353
0.33529
0.3549
0.34902
0.37451
0.38039
0.37451
0.38039
0.40392
0.41961
0.43922
0.46471
0.50588
0.53922
0.5902
0.6451
0.6902
0.73137
0.77059
0.78039
0.77647
0.76078
0.73137
0.68039
0.6098
0.52941
0.48039
0.42549
0.37451
0.34902
0.32941
0.3098
0.3098
0.3098
0.31373
0.3098
0.31373
0.3098
0.31961
0.33529
0.33529
0.34902
0.3549
0.3549
0.36471
0.35882
0.35882
0.3549
0.34902
0.33529
0.33529
0.33529
0.32941
0.3549
0.35882
0.36471
0.3549
0.33529
0.31373
0.31961
0.32941
0.33922
0.33529
0.33529
0.32353
0.3098
0.3098
0.31373
0.31961
0.28431
0.26471
0.83529
1.5039
1.5039
1.2118
0.4
0.3
0.3451
0.34902
0.3549
0.3549
0.33922
0.33922
0.3451
0.36471
0.4
0.4098
0.41569
0.42549
0.4451
0.46471
0.48431
0.50588
0.52941
0.56471
0.6098
0.66471
0.72549
0.77647
0.81176
0.82549
0.83137
0.82157
0.79608
0.7451
0.67647
0.6098
0.5451
0.47451
0.42549
0.3902
0.37059
0.3549
0.3451
0.34902
0.3451
0.3549
0.36471
0.36471
0.37059
0.38039
0.38431
0.38431
0.3902
0.4
0.3902
0.38431
0.38039
0.38039
0.38039
0.38039
0.37059
0.3549
0.3549
0.35882
0.38431
0.4
0.40392
0.3902
0.37451
0.3451
0.33922
0.3549
0.36471
0.37451
0.35882
0.3549
0.3451
0.3451
0.34902
0.3549
0.3451
0.27451
0.5549
1.4529
1.5039
1.5039
0.67647
0.41961
0.4098
0.3902
0.35882
0.3451
0.33922
0.3549
0.35882
0.37059
0.38431
0.3902
0.4
0.39412
0.41961
0.42549
0.44902
0.47059
0.49412
0.51961
0.56078
0.6098
0.66078
0.70588
0.75098
0.76667
0.77059
0.76078
0.74118
0.70588
0.6549
0.6
0.55098
0.49412
0.44902
0.41961
0.38431
0.37451
0.3549
0.3549
0.3549
0.3549
0.3549
0.35882
0.36471
0.37059
0.37451
0.38039
0.38039
0.38039
0.38431
0.38431
0.38039
0.38039
0.37059
0.37059
0.3549
0.34902
0.33922
0.3549
0.38039
0.3902
0.39412
0.38431
0.37059
0.33922
0.33922
0.3451
0.35882
0.37059
0.36471
0.3549
0.3451
0.3451
0.3451
0.3549
0.33922
0.29412
0.6098
1.4824
1.5039
1.5039
0.61961
0.41569
0.40392
0.3902
0.35882
0.3549
0.34902
0.3549
0.37059
0.37451
0.38039
0.4
0.40392
0.4098
0.42549
0.43922
0.46078
0.48039
0.49412
0.52941
0.56471
0.6098
0.66078
0.71569
0.7549
0.78039
0.78627
0.7902
0.77647
0.74118
0.6902
0.64118
0.57451
0.52549
0.47451
0.42941
0.4
0.38039
0.3549
0.3549
0.3549
0.37059
0.38039
0.38039
0.38039
0.37059
0.37451
0.38039
0.38039
0.38039
0.37451
0.37059
0.36471
0.35882
0.3549
0.34902
0.3451
0.33922
0.3451
0.34902
0.37059
0.38039
0.38039
0.37451
0.3549
0.32941
0.31961
0.33529
0.33922
0.3451
0.33529
0.32941
0.31961
0.31373
0.32353
0.31961
0.28431
0.32941
0.71569
1.5039
1.5039
1.3667
0.48039
0.33529
0.3549
0.3451
0.32941
0.3098
0.31373
0.32353
0.31961
0.33922
0.3549
0.36471
0.38039
0.3902
0.4
0.41569
0.42941
0.44902
0.47451
0.50588
0.5549
0.59608
0.65098
0.7
0.73137
0.75098
0.7549
0.7549
0.73137
0.68627
0.62549
0.57059
0.5098
0.44902
0.3902
0.36471
0.32941
0.3098
0.30392
0.31373
0.3
0.3098
0.3
0.3098
0.31373
0.31961
0.33529
0.3451
0.33922
0.3549
0.3549
0.3451
0.34902
0.33529
0.33529
0.32353
0.3098
0.30392
0.31373
0.33529
0.34902
0.35882
0.34902
0.33922
0.31373
0.3098
0.32941
0.33922
0.3451
0.33529
0.33529
0.32353
0.32353
0.31961
0.33529
0.33922
0.29412
0.44902
1.0922
1.5039
1.5039
0.98235
0.38431
0.34902
0.38039
0.3549
0.34902
0.33529
0.32941
0.33529
0.33529
0.3451
0.3549
0.35882
0.37059
0.38039
0.39412
0.41961
0.43922
0.47059
0.50588
0.55098
0.6
0.6549
0.72157
0.78039
0.81569
0.82549
0.82157
0.80588
0.77059
0.71569
0.65098
0.57451
0.50588
0.4451
0.40392
0.37451
0.34902
0.33529
0.32353
0.31961
0.33529
0.33922
0.34902
0.3549
0.36471
0.37059
0.38039
0.38039
0.38039
0.38039
0.38431
0.38431
0.38039
0.37451
0.37451
0.36471
0.35882
0.35882
0.35882
0.37059
0.4
0.40392
0.39412
0.3902
0.35882
0.33529
0.33922
0.34902
0.37059
0.36471
0.35882
0.3451
0.33922
0.33529
0.3451
0.3549
0.3
0.27451
0.81569
1.5039
1.5039
1.2471
0.5098
0.42549
0.4098
0.38039
0.37059
0.34902
0.3451
0.3549
0.37059
0.37451
0.38039
0.38431
0.39412
0.40392
0.42549
0.43922
0.46078
0.48431
0.5098
0.55098
0.58039
0.62941
0.68039
0.72157
0.75098
0.76667
0.76667
0.7549
0.72549
0.68627
0.63529
0.58039
0.52549
0.47059
0.42941
0.4
0.37451
0.35882
0.34902
0.3549
0.3549
0.34902
0.3549
0.3549
0.35882
0.36471
0.37059
0.37059
0.38039
0.37059
0.37451
0.37451
0.37451
0.36471
0.37451
0.34902
0.3549
0.3549
0.3451
0.35882
0.38039
0.40392
0.39412
0.38431
0.37451
0.33529
0.33529
0.34902
0.35882
0.37059
0.35882
0.34902
0.33922
0.33529
0.3451
0.3549
0.35882
0.29412
0.64118
1.5039
1.5039
1.4686
0.56471
0.40392
0.39412
0.37451
0.36471
0.3451
0.33529
0.33529
0.3549
0.3549
0.38431
0.39412
0.40392
0.40392
0.41569
0.43529
0.4451
0.47059
0.4902
0.51961
0.56078
0.6
0.65098
0.6902
0.72549
0.74118
0.75098
0.7451
0.72549
0.6902
0.6451
0.59608
0.53922
0.4902
0.4451
0.4098
0.38431
0.36471
0.3549
0.34902
0.3549
0.37451
0.38039
0.3902
0.4
0.4098
0.41569
0.42549
0.42549
0.42549
0.42549
0.42549
0.41961
0.4098
0.40392
0.38431
0.38039
0.37059
0.37451
0.3902
0.40392
0.41569
0.4098
0.4
0.37059
0.3549
0.3549
0.35882
0.37451
0.37059
0.35882
0.3451
0.33922
0.33922
0.33922
0.3451
0.31961
0.29412
0.83137
1.5039
1.5039
1.1725
0.43922
0.3549
0.37451
0.38039
0.3549
0.33922
0.33922
0.3451
0.3549
0.35882
0.37059
0.38039
0.3902
0.4
0.41569
0.43529
0.44902
0.47059
0.49412
0.52941
0.56471
0.6098
0.65098
0.6902
0.7098
0.73529
0.7451
0.73529
0.71569
0.67059
0.61961
0.56078
0.4902
0.43922
0.39412
0.35882
0.33529
0.32353
0.31373
0.31961
0.31373
0.31961
0.32941
0.33529
0.33529
0.33922
0.34902
0.3549
0.3451
0.33922
0.32941
0.33529
0.32353
0.31961
0.32353
0.3098
0.30392
0.29412
0.31373
0.32353
0.3451
0.34902
0.33922
0.32941
0.3098
0.2902
0.3
0.3098
0.32353
0.32941
0.31373
0.29412
0.3
0.3098
0.3
0.31961
0.28431
0.53922
1.4275
1.5039
1.5039
0.67059
0.32353
0.34902
0.35882
0.34902
0.3549
0.3451
0.33529
0.33922
0.34902
0.3549
0.37451
0.38039
0.4
0.40392
0.41961
0.4451
0.47059
0.5
0.5451
0.58039
0.63529
0.68627
0.73529
0.77647
0.79608
0.8
0.78627
0.76078
0.7098
0.6451
0.57451
0.49412
0.42941
0.38039
0.33529
0.3098
0.2902
0.28431
0.27843
0.29412
0.3098
0.32941
0.3451
0.3549
0.3549
0.37059
0.37451
0.38039
0.38431
0.3902
0.3902
0.38431
0.38431
0.38039
0.36471
0.36471
0.35882
0.3549
0.3549
0.37059
0.38039
0.38039
0.38039
0.36471
0.3451
0.33529
0.34902
0.35882
0.37059
0.36471
0.36471
0.3549
0.3549
0.3549
0.35882
0.34902
0.28431
0.49412
1.302
1.5039
1.5039
0.78039
0.42941
0.41961
0.40392
0.3902
0.36471
0.3549
0.34902
0.36471
0.38039
0.38431
0.39412
0.4
0.40392
0.41961
0.43529
0.44902
0.47059
0.49412
0.52549
0.57059
0.6098
0.65098
0.69608
0.73529
0.76078
0.77059
0.76078
0.75098
0.71569
0.67059
0.61961
0.56078
0.50588
0.46078
0.41961
0.38039
0.37059
0.3549
0.34902
0.3451
0.34902
0.33922
0.35882
0.36471
0.38039
0.38039
0.38039
0.37451
0.38039
0.38039
0.36471
0.37059
0.36471
0.36471
0.34902
0.34902
0.3451
0.33922
0.3451
0.36471
0.38431
0.38431
0.38039
0.37451
0.3549
0.33529
0.33922
0.3451
0.3549
0.3549
0.3549
0.33922
0.33529
0.33922
0.34902
0.3549
0.31373
0.2902
0.85686
1.5039
1.5039
1.1275
0.48039
0.41569
0.40392
0.37451
0.3549
0.3451
0.33529
0.3549
0.36471
0.37451
0.4
0.40392
0.40392
0.4098
0.42549
0.43922
0.4451
0.47451
0.5
0.53922
0.58431
0.61961
0.67059
0.71569
0.73529
0.74118
0.7451
0.75098
0.72157
0.68039
0.62941
0.57451
0.51961
0.47059
0.42941
0.4
0.37059
0.3549
0.3451
0.3451
0.34902
0.3549
0.3549
0.36471
0.37059
0.36471
0.38039
0.38039
0.38039
0.38039
0.37451
0.38039
0.37451
0.38039
0.37059
0.36471
0.3549
0.3549
0.3549
0.37451
0.39412
0.41569
0.41961
0.41569
0.39412
0.38039
0.3902
0.40392
0.42549
0.41961
0.4098
0.3902
0.38039
0.38039
0.38039
0.38431
0.3451
0.32941
0.93137
1.5039
1.5039
1.0961
0.44902
0.39412
0.40392
0.38039
0.37059
0.3451
0.33922
0.34902
0.3549
0.37451
0.38039
0.3902
0.4
0.40392
0.41569
0.42549
0.44902
0.47451
0.50588
0.53922
0.58039
0.61961
0.66471
0.7
0.73137
0.74118
0.75098
0.74118
0.70588
0.67059
0.61961
0.56078
0.5
0.4451
0.39412
0.36471
0.33922
0.32353
0.31373
0.31373
0.32353
0.32941
0.33529
0.33922
0.34902
0.34902
0.3549
0.36471
0.3549
0.3451
0.33922
0.33922
0.33529
0.32353
0.31961
0.32353
0.30392
0.3098
0.32353
0.33922
0.3549
0.3451
0.33922
0.31373
0.29412
0.30392
0.3098
0.33529
0.32353
0.31961
0.3098
0.30392
0.3098
0.30392
0.32353
0.3
0.27843
0.7902
1.5039
1.5039
1.2765
0.42941
0.31373
0.33922
0.32941
0.32353
0.32941
0.31961
0.32353
0.33529
0.3451
0.3549
0.36471
0.37451
0.38039
0.40392
0.41961
0.42941
0.46471
0.49412
0.53529
0.58039
0.63529
0.6902
0.74118
0.78039
0.8
0.81176
0.81569
0.76667
0.71569
0.6549
0.58431
0.5098
0.4451
0.39412
0.34902
0.33529
0.32353
0.3098
0.3098
0.3098
0.3098
0.3098
0.3098
0.32353
0.33529
0.3451
0.33922
0.33922
0.33529
0.32353
0.31961
0.31373
0.3098
0.30392
0.29412
0.29412
0.29412
0.30392
0.31961
0.34902
0.35882
0.35882
0.35882
0.3451
0.33529
0.3451
0.3549
0.3549
0.3549
0.3549
0.33922
0.33529
0.3451
0.3451
0.3549
0.31373
0.43529
0.99216
1.5039
1.5039
1.0765
0.43529
0.38431
0.40392
0.38431
0.37059
0.3549
0.3549
0.3549
0.37059
0.37451
0.38039
0.3902
0.40392
0.41961
0.43922
0.44902
0.47451
0.5
0.52941
0.56471
0.6098
0.66078
0.71569
0.7451
0.77647
0.79608
0.8
0.7902
0.76078
0.71569
0.66078
0.59608
0.53922
0.48431
0.43922
0.4
0.38039
0.3549
0.34902
0.34902
0.34902
0.3549
0.35882
0.36471
0.37451
0.37451
0.37451
0.38039
0.38431
0.38039
0.38039
0.38431
0.38039
0.37451
0.37451
0.36471
0.36471
0.3549
0.3549
0.37451
0.39412
0.4
0.40392
0.39412
0.38039
0.34902
0.34902
0.35882
0.37451
0.38039
0.37059
0.3549
0.3549
0.3451
0.3451
0.3549
0.36471
0.29412
0.63529
1.5039
1.5039
1.5039
0.60588
0.42549
0.41961
0.4
0.38039
0.3549
0.3451
0.3549
0.36471
0.37451
0.3902
0.40392
0.40392
0.41961
0.43922
0.44902
0.46471
0.48431
0.5098
0.55098
0.57451
0.61961
0.66471
0.70588
0.73137
0.75098
0.7549
0.75098
0.72549
0.7
0.65098
0.59608
0.5451
0.49412
0.4549
0.41961
0.3902
0.37451
0.36471
0.35882
0.36471
0.35882
0.35882
0.36471
0.37451
0.37451
0.37059
0.37451
0.38431
0.38431
0.38039
0.38431
0.38039
0.37059
0.36471
0.35882
0.3549
0.3549
0.34902
0.3549
0.39412
0.40392
0.40392
0.39412
0.37451
0.3549
0.34902
0.3549
0.37451
0.38039
0.37059
0.3549
0.34902
0.34902
0.3549
0.3549
0.35882
0.3098
0.66078
1.5039
1.5039
1.4784
0.57451
0.4098
0.41569
0.4
0.38039
0.36471
0.3549
0.37451
0.39412
0.4098
0.41961
0.42549
0.43922
0.44902
0.46078
0.48431
0.5
0.5098
0.51961
0.5451
0.58431
0.62549
0.66471
0.70588
0.73529
0.7549
0.7549
0.75098
0.73529
0.70588
0.6549
0.5902
0.52941
0.48039
0.42941
0.39412
0.37059
0.3549
0.33529
0.32941
0.33529
0.3451
0.3549
0.34902
0.3549
0.34902
0.35882
0.37059
0.35882
0.35882
0.35882
0.35882
0.3549
0.3549
0.33922
0.33529
0.32941
0.31961
0.32941
0.3451
0.3549
0.34902
0.34902
0.3549
0.33529
0.31373
0.31961
0.33529
0.3451
0.33529
0.33529
0.31373
0.3098
0.31961
0.32353
0.32941
0.2902
0.42549
1.0569
1.5039
1.5039
0.92549
0.34902
0.31373
0.34902
0.32941
0.32353
0.31961
0.32353
0.31961
0.33529
0.34902
0.36471
0.37451
0.38039
0.39412
0.40392
0.42549
0.4451
0.47451
0.5
0.53922
0.5902
0.6451
0.6902
0.73529
0.76667
0.77647
0.77647
0.76078
0.72549
0.67647
0.6098
0.53529
0.48431
0.42941
0.37451
0.33529
0.31373
0.3
0.2902
0.3
0.30392
0.3
0.3098
0.31373
0.33529
0.33529
0.3549
0.34902
0.3451
0.35882
0.35882
0.3549
0.34902
0.33922
0.33529
0.32941
0.32353
0.31961
0.33922
0.34902
0.3549
0.3549
0.3549
0.3451
0.3098
0.3098
0.31961
0.32941
0.32353
0.31961
0.30392
0.3
0.3
0.29412
0.3
0.2902
0.25882
0.66471
1.5039
1.5039
1.4118
0.46078
0.26471
0.30392
0.31373
0.32941
0.33529
0.32941
0.33529
0.33529
0.3451
0.37059
0.38039
0.3902
0.40392
0.41961
0.43922
0.46078
0.48431
0.51569
0.5451
0.58431
0.64118
0.6902
0.73529
0.78039
0.80588
0.81569
0.81176
0.7902
0.75098
0.6902
0.62549
0.55098
0.48431
0.42941
0.4
0.37059
0.3549
0.33529
0.32353
0.32941
0.33922
0.33922
0.3451
0.34902
0.3549
0.37059
0.37451
0.37451
0.38431
0.38039
0.38431
0.38039
0.38039
0.35882
0.3549
0.34902
0.34902
0.3451
0.34902
0.38039
0.38431
0.3902
0.38039
0.38039
0.3451
0.33529
0.3451
0.35882
0.37059
0.36471
0.3549
0.3451
0.33922
0.33529
0.3549
0.34902
0.27843
0.48431
1.2216
1.5039
1.5039
0.83529
0.44902
0.42549
0.4
0.37059
0.3549
0.33529
0.3451
0.3549
0.35882
0.37451
0.3902
0.4
0.40392
0.4098
0.42549
0.4451
0.47059
0.4902
0.5098
0.53922
0.5902
0.63529
0.68039
0.72157
0.74118
0.7549
0.7451
0.72549
0.7
0.65098
0.59608
0.5451
0.49412
0.4451
0.40392
0.38039
0.3549
0.3451
0.3451
0.33922
0.3451
0.34902
0.3549
0.35882
0.37059
0.36471
0.37451
0.37059
0.37451
0.37059
0.38039
0.37451
0.37059
0.37059
0.3549
0.3549
0.3549
0.3451
0.3549
0.37451
0.3902
0.39412
0.38039
0.37059
0.3451
0.33529
0.34902
0.35882
0.37451
0.37059
0.35882
0.3451
0.33922
0.34902
0.3451
0.3549
0.29412
0.52549
1.2765
1.5039
1.5039
0.7451
0.41961
0.4098
0.3902
0.37059
0.3549
0.33922
0.34902
0.35882
0.3549
0.37451
0.38431
0.4
0.40392
0.41569
0.42941
0.4451
0.46471
0.4902
0.51961
0.56078
0.6
0.6451
0.68627
0.72549
0.75098
0.76078
0.7549
0.74118
0.70588
0.66471
0.61569
0.57451
0.52549
0.48039
0.43922
0.41569
0.39412
0.38039
0.38039
0.38431
0.39412
0.4
0.39412
0.39412
0.39412
0.39412
0.40392
0.4
0.39412
0.4
0.3902
0.38431
0.3902
0.38431
0.38039
0.3549
0.3549
0.34902
0.35882
0.38431
0.4
0.38431
0.38039
0.35882
0.33922
0.33529
0.33922
0.3549
0.3549
0.33922
0.33529
0.32941
0.32941
0.33529
0.3451
0.32353
0.3
0.77647
1.5039
1.5039
1.2314
0.43922
0.33529
0.35882
0.3451
0.33529
0.31373
0.31961
0.32941
0.33529
0.34902
0.35882
0.37451
0.3902
0.38431
0.40392
0.41961
0.43922
0.46078
0.48039
0.51569
0.5549
0.60588
0.65098
0.68627
0.72157
0.73529
0.75098
0.74118
0.71569
0.66471
0.61569
0.56078
0.50588
0.43922
0.3902
0.36471
0.33922
0.3098
0.3098
0.31373
0.31373
0.31961
0.31961
0.32941
0.33529
0.33922
0.3451
0.3549
0.35882
0.3549
0.34902
0.34902
0.34902
0.34902
0.33922
0.3451
0.31961
0.32941
0.33922
0.34902
0.36471
0.3549
0.3549
0.32941
0.31961
0.31373
0.32941
0.33529
0.33922
0.33529
0.32353
0.31373
0.32353
0.31961
0.33529
0.3098
0.30392
0.93725
1.5039
1.5039
1.1627
0.41961
0.33529
0.34902
0.3549
0.3451
0.3451
0.33529
0.3451
0.3549
0.3549
0.36471
0.38039
0.37451
0.4
0.4098
0.42549
0.44902
0.48039
0.5098
0.5549
0.6
0.6451
0.69608
0.73529
0.77059
0.78039
0.78039
0.7549
0.72157
0.66471
0.59608
0.52549
0.4549
0.39412
0.3549
0.33529
0.3098
0.3
0.29412
0.29412
0.3098
0.32353
0.33922
0.34902
0.3451
0.3549
0.37059
0.38039
0.38431
0.3902
0.39412
0.39412
0.38431
0.38039
0.38431
0.37059
0.37059
0.37059
0.37451
0.38039
0.40392
0.41569
0.41961
0.4
0.38431
0.36471
0.37059
0.38039
0.4
0.3902
0.38039
0.37059
0.35882
0.3549
0.35882
0.36471
0.31961
0.3
0.84118
1.5039
1.5039
1.2529
0.5098
0.42549
0.42941
0.39412
0.38431
0.36471
0.35882
0.37451
0.38039
0.3902
0.4
0.41569
0.41569
0.42549
0.43922
0.4549
0.47059
0.49412
0.52549
0.5549
0.5902
0.63529
0.68039
0.72157
0.75098
0.76667
0.77059
0.7549
0.73137
0.69608
0.6451
0.58431
0.52549
0.47059
0.42941
0.4
0.38039
0.36471
0.3549
0.34902
0.3451
0.3451
0.34902
0.3549
0.35882
0.37451
0.38039
0.38039
0.38039
0.38431
0.38039
0.38039
0.38039
0.38039
0.35882
0.35882
0.3549
0.3549
0.36471
0.38039
0.4
0.40392
0.4098
0.3902
0.36471
0.3451
0.3549
0.36471
0.38039
0.37059
0.37059
0.34902
0.3451
0.34902
0.3549
0.36471
0.31373
0.3
0.92549
1.5039
1.5039
1.0765
0.48039
0.42549
0.4098
0.38039
0.37059
0.34902
0.33922
0.36471
0.37059
0.38039
0.39412
0.4
0.4098
0.42549
0.43529
0.44902
0.46471
0.47451
0.5098
0.5451
0.58431
0.62549
0.66471
0.70588
0.73137
0.75098
0.7549
0.73529
0.7098
0.67059
0.61961
0.57451
0.51961
0.47451
0.42941
0.39412
0.37451
0.3549
0.3451
0.33922
0.3451
0.3549
0.3549
0.3549
0.36471
0.35882
0.36471
0.37451
0.37059
0.37451
0.37451
0.38039
0.37059
0.37451
0.37059
0.37451
0.38039
0.37451
0.38431
0.41569
0.43529
0.43922
0.42549
0.4098
0.37451
0.37059
0.38039
0.4
0.40392
0.38431
0.38039
0.37059
0.35882
0.37059
0.36471
0.37451
0.31961
0.61569
1.4882
1.5039
1.5039
0.61569
0.38039
0.38039
0.37059
0.3549
0.3451
0.33529
0.33529
0.3451
0.3549
0.35882
0.37059
0.38431
0.3902
0.40392
0.41569
0.43529
0.44902
0.48039
0.5098
0.5451
0.5902
0.63529
0.67059
0.7
0.72549
0.73137
0.73137
0.70588
0.66471
0.61569
0.5549
0.50588
0.4451
0.4
0.3549
0.32941
0.3098
0.3
0.29412
0.2902
0.3098
0.31373
0.32353
0.33529
0.33529
0.32941
0.33922
0.33922
0.3451
0.34902
0.34902
0.33922
0.32941
0.32353
0.31961
0.3098
0.3098
0.32353
0.33529
0.3549
0.3549
0.34902
0.33529
0.3098
0.3
0.3098
0.32353
0.33529
0.31961
0.3098
0.3098
0.3098
0.3098
0.31373
0.31961
0.28431
0.57451
1.4333
1.5039
1.5039
0.64118
0.3098
0.33922
0.3451
0.32353
0.32941
0.32353
0.31961
0.33529
0.33922
0.34902
0.3549
0.36471
0.38039
0.3902
0.4098
0.43529
0.46078
0.49412
0.52941
0.57451
0.62549
0.67647
0.73529
0.77059
0.78627
0.8
0.8
0.78039
0.73529
0.67647
0.6
0.53529
0.46471
0.40392
0.35882
0.32941
0.30392
0.28431
0.28431
0.28431
0.27843
0.27451
0.28431
0.2902
0.3
0.3098
0.31961
0.32941
0.33529
0.33529
0.33529
0.33922
0.3451
0.34902
0.3549
0.3451
0.3549
0.33922
0.34902
0.37059
0.38431
0.38039
0.38431
0.37451
0.3451
0.33922
0.34902
0.36471
0.37059
0.36471
0.3549
0.3451
0.33922
0.34902
0.3549
0.35882
0.30392
0.6451
1.5039
1.5039
1.5039
0.5902
0.4
0.41961
0.40392
0.38039
0.36471
0.3549
0.35882
0.36471
0.38039
0.38039
0.3902
0.4
0.4098
0.42941
0.4451
0.46078
0.48039
0.5098
0.5451
0.58039
0.62941
0.68627
0.72549
0.76078
0.78039
0.78627
0.78039
0.76667
0.73137
0.66471
0.6098
0.55098
0.4902
0.43529
0.4
0.37451
0.3549
0.33922
0.33529
0.33529
0.33529
0.3451
0.3549
0.35882
0.3549
0.35882
0.37059
0.37059
0.37451
0.36471
0.37059
0.36471
0.3549
0.3549
0.34902
0.3451
0.33529
0.33922
0.3451
0.35882
0.38039
0.38431
0.38039
0.37451
0.33922
0.33529
0.33922
0.3549
0.36471
0.3549
0.35882
0.34902
0.34902
0.34902
0.34902
0.3549
0.29412
0.47059
1.1824
1.5039
1.5039
0.8451
0.4451
0.41569
0.4
0.38039
0.35882
0.3451
0.3549
0.36471
0.37451
0.38431
0.40392
0.4098
0.40392
0.42549
0.43529
0.4451
0.46471
0.4902
0.51569
0.5549
0.59608
0.64118
0.68627
0.72549
0.7451
0.7549
0.76078
0.74118
0.70588
0.66471
0.61569
0.56078
0.50588
0.44902
0.41569
0.38431
0.37059
0.3549
0.3451
0.3451
0.3451
0.34902
0.3549
0.35882
0.37059
0.36471
0.37059
0.37451
0.38039
0.36471
0.37451
0.37059
0.37059
0.35882
0.3549
0.3549
0.34902
0.3451
0.3549
0.38039
0.38431
0.39412
0.3902
0.38039
0.3549
0.34902
0.3549
0.37059
0.38039
0.38039
0.37059
0.3549
0.34902
0.3549
0.3549
0.36471
0.31373
0.50588
1.1922
1.5039
1.5039
0.84118
0.4451
0.42941
0.4451
0.42549
0.4098
0.38431
0.37451
0.38039
0.4
0.40392
0.4098
0.41569
0.42549
0.43529
0.44902
0.47059
0.48431
0.5098
0.52549
0.5549
0.6
0.64118
0.68039
0.7098
0.73137
0.7451
0.74118
0.73137
0.70588
0.6549
0.6
0.53922
0.48039
0.42941
0.39412
0.37059
0.34902
0.33529
0.32353
0.32353
0.32941
0.33529
0.33529
0.33529
0.34902
0.3451
0.3549
0.34902
0.34902
0.34902
0.34902
0.3549
0.33922
0.33922
0.32941
0.31961
0.3098
0.31373
0.3098
0.32941
0.34902
0.3451
0.3549
0.33529
0.3098
0.30392
0.3098
0.31373
0.32353
0.31373
0.31961
0.3098
0.2902
0.2902
0.30392
0.31373
0.26863
0.5098
1.3471
1.5039
1.5039
0.68039
0.32353
0.31961
0.33922
0.31373
0.31373
0.3098
0.3098
0.31373
0.33529
0.33922
0.3549
0.37059
0.38039
0.3902
0.40392
0.41569
0.4451
0.46471
0.51569
0.55098
0.59608
0.6451
0.6902
0.73137
0.76078
0.78039
0.78627
0.7549
0.71569
0.6549
0.59608
0.52941
0.46471
0.4
0.3549
0.33529
0.3098
0.3098
0.3098
0.3098
0.3098
0.3098
0.32353
0.31961
0.33529
0.33922
0.34902
0.3549
0.34902
0.35882
0.35882
0.3549
0.34902
0.3451
0.33922
0.32941
0.31961
0.31961
0.32353
0.32941
0.3451
0.34902
0.33922
0.33529
0.30392
0.28431
0.2902
0.3
0.30392
0.2902
0.29412
0.28431
0.26863
0.28431
0.3
0.3098
0.27843
0.44902
1.0922
1.5039
1.5039
0.95098
0.38431
0.34902
0.38039
0.38039
0.37059
0.35882
0.34902
0.34902
0.3549
0.38039
0.40392
0.40392
0.41569
0.42549
0.44902
0.47059
0.49412
0.5098
0.53922
0.58039
0.62941
0.67647
0.73137
0.77647
0.81176
0.82549
0.82549
0.81176
0.77647
0.73529
0.67647
0.6
0.53529
0.47451
0.41961
0.3902
0.36471
0.3451
0.33922
0.33922
0.33922
0.34902
0.3549
0.35882
0.36471
0.37451
0.37451
0.38039
0.38039
0.38039
0.38039
0.38431
0.38039
0.37451
0.37059
0.35882
0.3549
0.3549
0.3549
0.36471
0.38039
0.4
0.40392
0.39412
0.37451
0.3549
0.34902
0.3549
0.37059
0.38039
0.37059
0.35882
0.3549
0.3549
0.3549
0.36471
0.37059
0.29412
0.61569
1.5039
1.5039
1.5039
0.64118
0.42549
0.42941
0.4
0.38039
0.3549
0.33922
0.3549
0.37059
0.36471
0.38039
0.3902
0.4
0.40392
0.42549
0.43529
0.47059
0.48431
0.50588
0.53922
0.58039
0.61961
0.6549
0.7098
0.74118
0.7549
0.76667
0.7549
0.74118
0.7
0.6549
0.6
0.55098
0.5
0.44902
0.41569
0.3902
0.37451
0.3549
0.34902
0.34902
0.3549
0.3549
0.36471
0.37059
0.36471
0.36471
0.36471
0.37451
0.37451
0.36471
0.37059
0.37059
0.35882
0.35882
0.3549
0.3549
0.34902
0.33529
0.3549
0.38039
0.38431
0.3902
0.38039
0.37451
0.34902
0.33922
0.3451
0.35882
0.37059
0.35882
0.34902
0.33529
0.33529
0.33529
0.33922
0.33529
0.28431
0.52549
1.3373
1.5039
1.5039
0.68627
0.4098
0.4
0.38431
0.35882
0.34902
0.33529
0.33529
0.3549
0.3549
0.37451
0.38431
0.39412
0.40392
0.41961
0.43529
0.4549
0.47451
0.5
0.52941
0.56471
0.6098
0.6549
0.7
0.73137
0.76078
0.78627
0.7902
0.78039
0.7451
0.69608
0.6451
0.59608
0.53922
0.48431
0.4451
0.41961
0.39412
0.38039
0.37059
0.36471
0.37451
0.37059
0.38039
0.37451
0.38039
0.37451
0.38039
0.38431
0.38431
0.37451
0.36471
0.37059
0.36471
0.3902
0.41961
0.42941
0.42549
0.41961
0.41569
0.38039
0.34902
0.32941
0.31373
0.3098
0.31373
0.3098
0.27843
0.41961
1.002
1.5039
1.5039
0.95098
0.35882
0.33529
0.3451
0.3098
0.2902
0.26471
0.26471
0.26863
0.27451
0.2902
0.3
0.31373
0.33529
0.33529
0.35882
0.38039
0.40392
0.42549
0.4451
0.49412
0.53922
0.58431
0.62941
0.6549
0.68627
0.69608
0.7
0.68039
0.6451
0.59608
0.53922
0.4902
0.42941
0.38431
0.34902
0.32353
0.3098
0.3
0.2902
0.30392
0.30392
0.31373
0.32353
0.31373
0.32941
0.32941
0.33529
0.33922
0.32941
0.33529
0.32941
0.31961
0.32353
0.31961
0.3098
0.3098
0.30392
0.3098
0.3
0.30392
0.3
0.3098
0.30392
0.3098
0.3098
0.31373
0.31373
0.3098
0.32941
0.34902
0.37059
0.38039
0.37059
0.37059
0.33922
0.34902
0.3451
0.36471
0.38039
0.38039
0.38039
0.35882
0.3549
0.35882
0.37451
0.38039
0.33922
0.64118
1.5039
1.5039
1.5039
0.68039
0.37451
0.4
0.38039
0.38039
0.35882
0.3451
0.3549
0.3549
0.37059
0.38039
0.38431
0.38431
0.39412
0.40392
0.40392
0.42549
0.44902
0.47059
0.50588
0.5451
0.59608
0.6451
0.70588
0.75098
0.7902
0.80588
0.82549
0.82157
0.79608
0.7549
0.7
0.62941
0.56471
0.49412
0.44902
0.40392
0.37451
0.3549
0.3549
0.35882
0.3549
0.37451
0.38039
0.38039
0.38039
0.3902
0.3902
0.38431
0.39412
0.3902
0.39412
0.3902
0.38431
0.3902
0.37059
0.3549
0.3549
0.3549
0.34902
0.37059
0.38431
0.40392
0.4
0.4
0.38039
0.3549
0.3549
0.37451
0.38039
0.38039
0.37451
0.3549
0.34902
0.33922
0.3451
0.3549
0.31373
0.27843
0.81176
1.5039
1.5039
1.2667
0.52549
0.41961
0.40392
0.3902
0.37451
0.35882
0.3549
0.37059
0.38039
0.3902
0.40392
0.4098
0.42549
0.41961
0.4451
0.46078
0.47451
0.50588
0.52549
0.5549
0.5902
0.63529
0.68039
0.72157
0.7549
0.77647
0.77647
0.7549
0.73529
0.69608
0.6451
0.58431
0.52941
0.48039
0.42941
0.4
0.37451
0.3549
0.34902
0.3451
0.3451
0.34902
0.3549
0.3549
0.36471
0.37451
0.38039
0.38039
0.38431
0.38039
0.38039
0.38431
0.37451
0.38039
0.35882
0.35882
0.3549
0.3549
0.3549
0.37059
0.3902
0.40392
0.40392
0.4
0.37451
0.34902
0.3451
0.35882
0.38039
0.37451
0.36471
0.3549
0.3549
0.33922
0.3549
0.3549
0.35882
0.30392
0.66471
1.5039
1.5039
